,x_(nm),baseline_dark,baseline_light,baseline_mirror,baseline_calibration,baseline_dark_smoothed,baseline_light_smoothed,raw_signal,calibrated_signal,calibrated_signal_smoothed,raw_signal_smoothed
0,186.23,1303,1299,0.3621226043733797,-0.09053065109334492,1282.4251401576582,4179.392931563864,1290,1.1768984642134839,,1505.0331287490003
1,186.775442325,1292,1290,1.18800459154587,-0.594002295772935,1288.8492671959918,3190.238233555003,1296,-2.37600918309174,,1432.5057071756298
2,187.3207793,1294,1279,1.908567993433533,-0.12723786622890218,1294.903684666899,2324.8326890053,1300,-0.763427197373413,,1369.4495063885902
3,187.86601092499998,1295,1277,1.7279185264672412,-0.09599547369262451,1300.598567670899,1578.9449697021282,1303,-0.7679637895409961,,1315.5319117422814
4,188.41113719999998,1292,1289,1.043047789334166,-0.34768259644472205,1305.944091308511,948.3437474328621,1305,-4.519873753781386,,1270.4203085911033
5,188.956158125,1294,1299,0.840365554154959,0.1680731108309918,1310.950430680254,428.79769398487315,1291,-0.5042193324929753,,1233.7820822894555
6,189.50107369999998,1304,1305,0.8202728553565946,0.8202728553565946,1315.6277608866471,16.075481145536287,1287,-13.944638541062108,,1205.2846181917375
7,190.045883925,1325,1320,0.837733819880384,-0.1675467639760768,1319.9862570282098,-294.0542192977764,1294,5.1939496832583805,,1184.5953016523497
8,190.59058879999998,1326,1329,0.8116271105193998,0.27054237017313326,1324.036094205461,-505.8227355576919,1294,-8.657355845540264,,1171.3815180256915
9,191.135188325,1338,1333,0.8262856362484797,-0.16525712724969593,1327.7874475189199,-623.4613958468353,1315,3.8009139267430063,,1165.3106526661627
10,191.67968249999998,1346,1323,0.8012221689422371,-0.03483574647574944,1331.2504920691058,-651.2015283778355,1324,0.7663864224664877,,1166.0500909281632
11,192.22407132499998,1336,1315,0.7775424502505143,-0.037025830964310204,1334.4354029565377,-593.2744613633176,1319,0.6294391263932735,,1173.2672181660928
12,192.7683548,1334,1323,0.7753865851703869,-0.07048968956094427,1337.352355281735,-453.91152301590864,1315,1.3393041016579412,,1186.6294197343511
13,193.312532925,1336,1326,0.7956261498651602,-0.07956261498651603,1340.0115241452165,-237.34404154823642,1310,2.068627989649417,,1205.8040809873382
14,193.8566057,1326,1327,0.7908861747409445,0.7908861747409445,1342.4230846475016,52.19665482707296,1313,-10.281520271632278,,1230.4585872794532
15,194.400573125,1334,1334,0.7942231778648126,inf,1344.5972118891095,410.47923789739116,1324,-inf,,1260.260323965097
16,194.9444352,1339,1337,0.7947581770897779,-0.39737908854488896,1346.5440809705592,833.2723794500953,1337,0.7947581770897779,,1294.8766763986682
17,195.488191925,1362,1344,0.7914877943554887,-0.04397154413086048,1348.2738669923701,1316.3447512725552,1347,0.6595731619629073,,1333.9750299345674
18,196.0318433,1368,1342,0.7911116722494277,-0.030427372009593372,1349.796745055061,1855.4650251521443,1355,0.39555583612471384,,1377.2227699271941
19,196.575389325,1358,1336,0.7900325230816138,-0.035910569230982445,1351.1228902591513,2446.4018728762367,1349,0.323195123078842,,1424.287281730948
20,197.11883,1346,1330,0.798472358442206,-0.049904522402637874,1352.2624777051603,3084.923966232207,1335,0.5489497464290166,,1474.8359507002292
21,197.662165325,1354,1327,0.7981102791346143,-0.029559639967948678,1353.2256824936069,3766.7999770074302,1337,0.5025138794551275,,1528.5361621894367
22,198.2053953,1358,1325,0.8040599544843242,-0.024365453166191643,1354.0226797250102,4487.79857698927,1345,0.3167508911604914,,1585.0553015529713
23,198.74851992499998,1338,1318,0.8074165803696804,-0.040370829018484024,1354.6636444998899,5243.688437965105,1333,0.2018541450924201,,1644.0607541452323
24,199.2915392,1351,1323,0.8060625325032217,-0.028787947589400776,1355.1587519187644,6030.238231722317,1338,0.3742433186622101,,1705.2199053206198
25,199.83445312499998,1377,1360,0.8122546130835153,-0.04777968312255972,1355.5181770821277,6843.216630048116,1369,0.3822374649804778,-inf,1768.200140433498
26,200.3772617,1376,2394,0.8144257223941842,0.000800025267577784,1356.19450044166,7565.778658633119,1447,0.05680179399802267,-inf,1823.6010781670811
27,200.919964925,1359,6562,0.8150182986479615,0.0001566439167111208,1356.135699562818,8305.169199755217,1751,0.06140441535075935,-inf,1879.7031416339762
28,201.4625628,1348,11378,0.8232603193402961,8.207979255636053e-05,1355.681102629705,9062.58245939868,2114,0.06287312109817217,-inf,1936.7206731748934
29,202.005055325,1340,13406,0.8194894939197722,6.791724630530186e-05,1355.2536863801865,9835.918616503017,2281,0.06391012877328905,-inf,1995.298579809244
30,202.5474425,1350,14311,0.8269202298982968,6.380065040492993e-05,1354.7948990916861,10621.002786019866,2351,0.06386445105533485,-inf,2055.7219189562225
31,203.089724325,1354,15015,0.8298864771900701,6.0748589209433436e-05,1354.1731862556082,11420.207411266174,2400,0.06354302431306737,-inf,2116.1694489115994
32,203.63190079999998,1356,15704,0.8293789756785952,5.780450067456058e-05,1353.2433124192812,12235.471834016393,2455,0.06352714624134208,-inf,2176.5586083489584
33,204.173971925,1359,16233,0.8303112569560028,5.582299697162853e-05,1352.9680173956115,13063.39452762212,2487,0.06296834058399699,-inf,2238.4324220253707
34,204.71593769999998,1353,16608,0.832804584655424,5.459223760441979e-05,1353.0837844571531,13894.387755101774,2516,0.06349077233394021,-inf,2300.5183809372365
35,205.257798125,1357,16904,0.8371769300637781,5.384813340604477e-05,1353.4370427415988,14721.682506964768,2541,0.06375618995275702,inf,2362.5929239619923
36,205.7995532,1359,17314,0.8381556767340916,5.253247738853599e-05,1354.105619606307,15540.667852046181,2562,0.06319657029840879,inf,2423.814242678157
37,206.34120292499998,1367,17926,0.840625124319978,5.0765452280933516e-05,1354.6907064712418,16352.686606717845,2612,0.06320298808976223,inf,2483.7243425671677
38,206.88274729999998,1357,18610,0.8415937915656597,4.8779562485692906e-05,1355.2043760900326,17156.557249314494,2659,0.06351099035637216,inf,2542.82124170418
39,207.424186325,1336,19025,0.8431564976534377,4.7665582998102646e-05,1355.2583070963974,17942.411855307815,2662,0.06320456305548411,inf,2600.4553217512926
40,207.96552,1339,19326,0.844165982526256,4.693200547763696e-05,1355.1354051054125,18707.72060522286,2673,0.0626072953071677,inf,2656.359781648457
41,208.506748325,1345,19662,0.8476484869242688,4.6276600257917165e-05,1355.14829327955,19454.110376225588,2710,0.06316755935205694,0.03008555980418833,2710.639312328653
42,209.0478713,1360,20090,0.8491768105118729,4.533779020351697e-05,1355.0431719857495,20176.244716754238,2760,0.06347290628492376,0.03467638994456119,2763.3549797276874
43,209.588888925,1359,20658,0.8502736512177026,4.4057912390160245e-05,1355.5896622799803,20870.047294389053,2798,0.0633993359294406,0.03840569744800903,2814.149312555157
44,210.12980119999997,1344,21124,0.8513731200582484,4.3042119315381616e-05,1356.2901311467724,21533.19803393014,2817,0.06340104175155713,0.03644790466098047,2862.644114249418
45,210.670608125,1336,21604,0.8534308197221572,4.2107303124243e-05,1356.4393530997045,22153.394142562258,2836,0.0631609546863645,0.033562397962302405,2907.204444041711
46,211.2113097,1341,22040,0.8557212941711507,4.134119011407076e-05,1356.5129448005357,22727.12740945391,2871,0.06325202087452826,0.039055050448381104,2947.997848195826
47,211.751905925,1351,22297,0.8575135521308375,4.093925103269538e-05,1357.0122539581612,23249.73426351628,2894,0.06316926434344897,0.04552009276399268,2985.12947065613
48,212.29239679999998,1352,22594,0.8580327959771828,4.039322078792876e-05,1357.8386826428425,23709.699223085005,2925,0.06353853629941195,0.04825563721091597,3017.288364402307
49,212.83278232499998,1354,23012,0.8587529108532552,3.965060997567898e-05,1358.0061156537827,24113.217400167152,2965,0.06387713267081883,0.048546052765718196,3044.187139006488
50,213.37306249999997,1360,23537,0.8598387128136875,3.877164236883652e-05,1358.2468459081483,24463.145258102773,2990,0.06319777706120353,0.055088800515152574,3067.0144510633854
51,213.91323732499998,1359,24118,0.8611437003932625,3.7837501664979235e-05,1358.749892409768,24750.895648825095,3034,0.06337781528884022,0.06361658995790237,3085.4325352782025
52,214.45330679999998,1368,24782,0.8624756676121401,3.683589594311695e-05,1359.278488753966,25009.918480599306,3101,0.06383660766942167,0.06343294319610138,3101.3973362929487
53,214.993270925,1379,25341,0.8630074298534857,3.601566771778172e-05,1358.9948130195214,25345.68604045343,3158,0.06407187286993368,0.06336935402814985,3122.7749439397803
54,215.5331297,1375,25904,0.8629495266956824,3.5180787096729683e-05,1358.3612992366498,25794.442977190378,3187,0.06374758621927419,0.06333445290062918,3152.3219778476823
55,216.07288312499998,1367,26553,0.8648478670709356,3.433843671368759e-05,1358.4080726630013,26283.752383971954,3195,0.0627706623126209,0.06331087247720499,3185.524519241598
56,216.61253119999998,1367,27039,0.8650803831098881,3.369742844772079e-05,1359.1599356723561,26779.943939839573,3238,0.0630478886256856,0.06327314587078287,3219.1727332441797
57,217.152073925,1382,27336,0.8652291434094919,3.333702486743823e-05,1360.3945502729134,27284.720265464155,3286,0.06347369534760239,0.0632216684241632,3253.569435321236
58,217.69151129999997,1379,27616,0.8680312398394996,3.308424133245034e-05,1361.7489184352726,27802.70563319614,3282,0.06295931125565299,0.0631631206373737,3288.9655031823418
59,218.230843325,1365,28089,0.868212549145114,3.248812113250689e-05,1363.0259349022367,28335.419352646175,3301,0.06289700251253334,0.06308269510687273,3324.9521166956706
60,218.77006999999998,1367,28687,0.868144571802742,3.177688769409744e-05,1363.9694443815001,28877.452784886988,3341,0.06272757630814835,0.06300986860856841,3361.320233753815
61,219.30919132499997,1364,29339,0.8681762475955156,3.103400348866901e-05,1365.071575800105,29418.492604588442,3394,0.06299902708199809,0.06293816334568605,3397.525651770077
62,219.84820729999998,1355,29844,0.868951283960652,3.0501291163629893e-05,1366.1349973951583,29960.20313030815,3443,0.06368669594965921,0.06284658771429727,3433.3349339735237
63,220.38711792499998,1351,30278,0.8691522224557424,3.004640033379688e-05,1367.3724206663537,30513.672019750717,3466,0.0635481367059804,0.06274467179463415,3469.7293709936143
64,220.9259232,1365,30926,0.8692686507714266,2.9405928445297064e-05,1368.2548868603783,31086.86244308985,3498,0.06272284537381864,0.06265316847496931,3507.600851661351
65,221.464623125,1357,31556,0.8701622824311823,2.8814274725361183e-05,1368.4537815125789,31671.497995423983,3537,0.06281511890128738,0.06255667749893089,3545.697297786972
66,222.0032177,1355,32012,0.86932404321908,2.8356461598299898e-05,1368.3434958888954,32258.024394662905,3572,0.06286627536343087,0.06243930318606884,3583.232621350358
67,222.54170692499997,1360,32503,0.8705973257298546,2.7954831767326673e-05,1368.345738295292,32841.195746222395,3598,0.0625629134952771,0.062319162603030914,3620.077125189629
68,223.0800908,1360,32994,0.8704844215444587,2.7517368070571496e-05,1369.1446238872645,33423.84565901768,3623,0.0622718039437033,0.0621908542748912,3657.0515753470495
69,223.61836932499997,1363,33400,0.8703398065724872,2.7166707449901277e-05,1369.8728850030313,34008.69734308754,3648,0.06207592652302442,0.062055861130027264,3693.90615868982
70,224.1565425,1375,34078,0.8697053263836744,2.6594053340172902e-05,1369.7378423067075,34592.59371673132,3705,0.061964144282602864,0.06192514058999523,3730.1082470723427
71,224.69461032499999,1367,34755,0.8700422735223692,2.6058532212842014e-05,1369.1965163423597,35175.326847719545,3737,0.06175872134443557,0.06178022145113224,3765.3691589842765
72,225.23257279999999,1360,35472,0.8700397124616915,2.55053855670055e-05,1368.6417585902022,35751.988969171885,3768,0.06141696844534924,0.06164172930695738,3800.373439941941
73,225.77042992499997,1352,36487,0.8700678242154535,2.4763564087532476e-05,1368.2247389521583,36314.85585177397,3842,0.061661274577955866,0.06152152938890477,3835.465355953629
74,226.30818169999998,1351,37184,0.8699872642519537,2.4278940201823843e-05,1367.360347912724,36864.280482003414,3899,0.061862739634247155,0.06142354444543303,3870.067181589543
75,226.84582812499997,1358,37633,0.8700242014773532,2.3984126849823657e-05,1366.2077736754816,37406.7221001601,3920,0.06144733298924821,0.061333540688721974,3904.0367618744863
76,227.3833692,1378,38233,0.8696880407569096,2.359755910342992e-05,1365.4953226573384,37941.55643389359,3969,0.06114127563698692,0.061223130592880357,3937.2902217490014
77,227.92080492499997,1384,38615,0.87010037851645,2.3370319854864225e-05,1364.919952886789,38466.13560895983,3997,0.06106664578076022,0.061117845949057156,3970.0825839769113
78,228.45813529999998,1403,38850,0.8693067287349536,2.32143223418419e-05,1364.4093410949024,38981.555459919065,4006,0.060426881055814466,0.06104196049879215,4003.3209359214616
79,228.99536032499998,1412,39193,0.8691277262341458,2.3004360028430847e-05,1364.2450791637148,39478.16829373183,4032,0.06027142327448882,0.060987601040998374,4036.355704545892
80,229.53248,1385,39745,0.86926662631248,2.266075668176434e-05,1364.3027248635044,39948.88185462788,4057,0.06054954185367431,0.0609364379962292,4068.064033160356
81,230.069494325,1371,40530,0.8686441253792921,2.218248998644736e-05,1364.2395977258568,40406.54635439004,4111,0.060780022562865764,0.06087589259349313,4098.862058030681
82,230.60640329999998,1357,41150,0.868302707705708,2.1820488721777902e-05,1364.1072957484619,40841.23846519662,4140,0.0607264201127079,0.06084303566014942,4129.0757208543
83,231.143206925,1352,41643,0.8687016218294412,2.1560686551076945e-05,1364.4194432489717,41232.17875829498,4169,0.06073645401438375,0.060838247612866006,4157.588710956002
84,231.67990519999998,1355,41920,0.8683284847277679,2.140585442444886e-05,1364.4117420552864,41579.159777117595,4189,0.060664191438888064,0.060824685219058205,4182.364470316348
85,232.216498125,1358,42169,0.8683608504247778,2.1277617564499223e-05,1363.7910937959825,41898.74142109593,4210,0.06068376529395179,0.06082143648313976,4205.06629821732
86,232.75298569999998,1354,42627,0.868249886800152,2.103675252102227e-05,1363.2785793562446,42195.52309225495,4243,0.06077517803323333,0.060832637805345216,4227.091983963315
87,233.289367925,1355,43106,0.867778574191436,2.078461771434064e-05,1362.902670502137,42462.70382115028,4278,0.06075343757901769,0.06086863017056553,4248.262814559705
88,233.8256448,1356,43388,0.8676471171202086,2.0642537046065106e-05,1362.405014836097,42689.25665360402,4309,0.06095741189703026,0.060948389661768694,4268.040340664486
89,234.36181632499998,1357,43436,0.8677489292852631,2.062189998063792e-05,1361.929058415793,42864.22206618414,4306,0.060813983042901226,0.0610453483903525,4284.781671158948
90,234.89788249999998,1355,43415,0.8672589311593729,2.061956564810682e-05,1361.8398831230347,43010.901266166016,4292,0.06055966430848973,0.06113322256565729,4299.760742032579
91,235.433843325,1363,43492,0.8668004592010585,2.0574911799498172e-05,1360.8641871842817,43139.93558177906,4301,0.060449090866925625,0.06126189310700668,4314.525787673477
92,235.9696988,1361,43685,0.8665578153052318,2.047438369022852e-05,1359.4356837074195,43235.43038347332,4337,0.060931765862120076,0.06142692806952972,4328.192461890333
93,236.505448925,1345,43794,0.8666098942893835,2.0415319425413637e-05,1357.719223538446,43292.40340664485,4360,0.06155218806762212,0.06159985542039994,4339.09150830135
94,237.04109369999998,1342,43886,0.8664654382940954,2.036633692868784e-05,1355.7655213028347,43315.5137149191,4380,0.061872931589353655,0.0617719387090576,4347.386849079171
95,237.576633125,1351,43918,0.8658853313998153,2.0341704404816297e-05,1353.9637590885154,43301.170558788726,4396,0.061940489912665625,0.061954512969279306,4353.726403768972
96,238.11206719999998,1350,43889,0.8659634438688039,2.0356929967060905e-05,1352.677161430584,43253.194092730606,4417,0.062434704208975796,0.06214433342028046,4358.506376135277
97,238.64739592499998,1348,43899,0.8653764850454776,2.0337394774399604e-05,1351.2660309406524,43181.61292441422,4427,0.06261883851037638,0.06233994404625731,4361.6159369407305
98,239.1826193,1347,43892,0.865240351462597,2.0337063144026254e-05,1350.065120387752,43098.73589435691,4406,0.06221107615757631,0.06253630711390024,4364.355840449303
99,239.71773732499997,1359,43791,0.8654717432609225,2.0396675699022494e-05,1348.9301229925672,43025.75820516803,4404,0.06210787750352349,0.0627466475205241,4368.6695055379805
100,240.25275,1369,43457,0.8654328986505,2.0562461952349837e-05,1347.4652880019676,42956.506670591945,4412,0.06257157172100056,0.06296799658146467,4373.388615823605
101,240.787657325,1359,43121,0.8649750843904328,2.0712012939764207e-05,1346.2549774626573,42883.069197489494,4403,0.06304736738864225,0.063180901433317,4377.677206731665
102,241.3224593,1351,42827,0.8650023747478218,2.0855491724077102e-05,1345.7113637907735,42820.72506738463,4399,0.06356753877498701,0.06339535600435543,4383.578812657054
103,241.85715592499997,1356,42496,0.864426750181391,2.1011831555211255e-05,1345.2713085233834,42761.65446555899,4386,0.0636658496122901,0.06361740179526798,4390.2811841716975
104,242.3917472,1356,42321,0.8640504083213235,2.109240591532585e-05,1345.3458062470013,42695.572040135994,4386,0.06390998992343733,0.06382328046396392,4396.491064350184
105,242.92623312499998,1345,42356,0.8638615542876957,2.10641426516714e-05,1346.1749530000423,42633.955151871254,4396,0.06426669923024944,0.06401122621338162,4402.999818795359
106,243.46061369999998,1339,42003,0.8647030136247108,2.1264583258526236e-05,1346.6426419624195,42594.00414505343,4363,0.06430409977378333,0.06420330986094983,4410.98230990501
107,243.994888925,1338,41757,0.863747888775786,2.1369848060956134e-05,1346.3106525628862,42577.03796235394,4345,0.0642591331192951,0.06439594399903562,4419.958209698889
108,244.52905879999997,1336,41988,0.8628771528607923,2.122594590329608e-05,1345.6774785385596,42576.95281886258,4371,0.0644207458165036,0.06456617849550284,4428.820924596168
109,245.063123325,1344,42196,0.8633129275796555,2.1132696748743157e-05,1345.1602754309013,42598.013680943266,4417,0.06494077710888772,0.06472269785378561,4438.6231624724505
110,245.59708249999997,1351,41999,0.8623491049005171,2.121504391115226e-05,1344.2983080024203,42645.327844344465,4428,0.06527869011461551,0.06487203106588307,4449.812294729128
111,246.130936325,1349,41723,0.862505803534046,2.1362901955071235e-05,1343.2730752678171,42732.3996466503,4409,0.06537047998251798,0.06501190318637168,4463.3907449771505
112,246.66468479999997,1340,41727,0.8631762817630669,2.1372626879022133e-05,1342.2597793834257,42866.96434800253,4408,0.0655712192648399,0.06513725580785248,4479.702371514558
113,247.19832792499997,1331,42003,0.8629529675416884,2.1217372333342062e-05,1341.6056082810228,43049.50793902384,4425,0.06564654999936034,0.06524432658585762,4499.010215406832
114,247.7318657,1319,42670,0.8621360146885437,2.084921802830751e-05,1341.160977598561,43274.546852702515,4478,0.06586267975142342,0.06533084423672515,4520.492060975246
115,248.265298125,1312,42856,0.8624878814902607,2.0760829036449565e-05,1340.7741285193065,43532.81902194757,4502,0.06622704462627411,0.06539010212123449,4543.098711182499
116,248.79862519999998,1328,42700,0.862427427307537,2.0845678896537197e-05,1340.4649029422835,43814.56748737146,4480,0.06570557988188525,0.06542579871202164,4566.446850438201
117,249.33184692499998,1337,42937,0.8621956715984717,2.0725857490347878e-05,1340.3681623592577,44112.323291579945,4482,0.06518282180714408,0.06542488883618373,4589.361004779182
118,249.8649633,1350,43461,0.8614594306460737,2.0456874228730584e-05,1340.5171125053535,44443.169109152244,4536,0.06517560129273564,0.06540274201489656,4613.685021178194
119,250.397974325,1359,43937,0.861591555373828,2.0235604194039833e-05,1340.2427688056098,44813.027044779315,4592,0.06542170835933078,0.06536898164602954,4639.6497768918
