,x_(nm),baseline_dark,baseline_light,baseline_mirror,baseline_calibration,baseline_dark_smoothed,baseline_light_smoothed,raw_signal,calibrated_signal,calibrated_signal_smoothed,raw_signal_smoothed
0,186.23,1267,1293,0.3621226043733797,0.013927792475899219,1248.919728317064,4170.697815975293,1248,-0.26462805704208514,,1496.500077470112
1,186.775442325,1262,1294,1.18800459154587,0.037125143485808434,1256.2958346376765,3184.1988964461834,1248,-0.5197520088013181,,1417.6440390702335
2,187.3207793,1259,1287,1.908567993433533,0.06816314262262617,1263.1408020586073,2321.0121990289463,1257,-0.13632628524525234,,1349.1052694453056
3,187.86601092499998,1263,1288,1.7279185264672412,0.06911674105868965,1269.4735362456543,1576.9257729765045,1264,0.06911674105868965,,1290.5213589225414
4,188.41113719999998,1269,1295,1.043047789334166,0.0401172226666987,1275.3129428646155,947.7276675417797,1272,0.12035166800009608,,1241.5298978291537
5,188.956158125,1271,1295,0.840365554154959,0.03501523142312329,1280.677927581289,429.2059319776931,1279,0.2801218513849863,,1201.7684764923558
6,189.50107369999998,1280,1296,0.8202728553565946,0.05126705345978716,1285.5873960614726,17.148615537166734,1275,-0.2563352672989358,,1170.8746852393606
7,190.045883925,1296,1309,0.837733819880384,0.06444106306772185,1290.0602539709644,-292.65623252687783,1282,-0.9021748829481059,,1148.4861143973808
8,190.59058879999998,1294,1313,0.8116271105193998,0.04271721634312631,1294.1154069755626,-504.42056296151986,1302,0.34173773074501046,,1134.2403542936295
9,191.135188325,1301,1318,0.8262856362484797,0.04860503742638116,1297.771760741065,-622.3563265138373,1316,0.7290755613957175,,1127.7749952553197
10,191.67968249999998,1310,1326,0.8012221689422371,0.05007638555888982,1301.0482209332695,-650.6754739309072,1323,0.6509930122655676,,1128.7276276096645
11,192.22407132499998,1305,1309,0.7775424502505143,0.19438561256262857,1303.9636932179744,-593.5899559598092,1309,0.7775424502505143,,1136.7358416838765
12,192.7683548,1295,1293,0.7753865851703869,-0.38769329258519347,1306.5370832609776,-455.31172334762414,1295,-0.0,,1151.4372278051694
13,193.312532925,1295,1295,0.7956261498651602,inf,1308.787296728077,-240.05272684142528,1290,-inf,,1172.4693763007554
14,193.8566057,1302,1311,0.7908861747409445,0.08787624163788271,1310.7332392850708,47.97508281170758,1296,-0.5272574498272963,,1199.4698774978476
15,194.400573125,1304,1329,0.7942231778648126,0.031768927114592505,1312.3938165977568,404.55975486469106,1303,-0.031768927114592505,,1232.0763217236595
16,194.9444352,1303,1339,0.7947581770897779,0.02207661603027161,1313.7879343319332,825.4893385704536,1304,0.02207661603027161,,1269.9262993054033
17,195.488191925,1315,1349,0.7914877943554887,0.02327905277516143,1314.934498153398,1306.5518831819131,1312,-0.06983715832548429,,1312.6574005702923
18,196.0318433,1326,1350,0.7911116722494277,0.03296298634372615,1315.852413727949,1843.5354379519931,1328,0.0659259726874523,,1359.9072158455401
19,196.575389325,1323,1331,0.7900325230816138,0.09875406538520172,1316.5605867213842,2432.2280521336115,1322,-0.09875406538520172,,1411.3133354583586
20,197.11883,1312,1320,0.798472358442206,0.09980904480527575,1317.077922799502,3068.417774979694,1313,0.09980904480527575,,1466.5133497359611
21,197.662165325,1319,1333,0.7981102791346143,0.05700787708104388,1317.4233276281,3747.8926557431623,1315,-0.2280315083241755,,1525.1448490055614
22,198.2053953,1329,1333,0.8040599544843242,0.20101498862108105,1317.6157068729765,4466.440743676935,1309,-4.020299772421621,,1586.8454235943714
23,198.74851992499998,1321,1321,0.8074165803696804,inf,1317.6739661999293,5219.8500880339325,1308,-inf,,1651.2526638296042
24,199.2915392,1326,1321,0.8060625325032217,-0.16121250650064434,1317.6170112747564,6003.90873806708,1316,1.6121250650064434,,1718.0041600384734
25,199.83445312499998,1345,1347,0.8122546130835153,0.40612730654175766,1317.4637477632311,6814.4047430291575,1330,-6.091909598126365,-inf,1786.737502548155
26,200.3772617,1339,2374,0.8144257223941842,0.0007868847559364099,1318.2349090579373,7535.777163695524,1416,0.060590126207103565,-inf,1847.2557249314466
27,200.919964925,1318,6531,0.8150182986479615,0.0001563434296274624,1318.4988787967764,8274.409567600467,1769,0.07051088676198554,-inf,1908.3152732790863
28,201.4625628,1310,11314,0.8232603193402961,8.229311468815435e-05,1318.5556864254881,9030.580647353107,2153,0.06937309568211412,-inf,1970.2767220095207
29,202.005055325,1311,13329,0.8194894939197722,6.818850839738495e-05,1318.8800425830457,9803.105755509565,2324,0.06907495900655095,-inf,2033.8746290968827
30,202.5474425,1314,14254,0.8269202298982968,6.390419087312959e-05,1319.2325986998321,10589.65426170448,2400,0.06939995128821873,-inf,2098.673945049678
31,203.089724325,1310,14947,0.8298864771900701,6.085550173719074e-05,1319.0322317606037,11389.469727513428,2465,0.07028810450645531,-inf,2163.98047520891
32,203.63190079999998,1308,15621,0.8293789756785952,5.7945851720715096e-05,1318.7662461210646,12203.438696232977,2540,0.071389289319921,-inf,2230.0296948967843
33,204.173971925,1308,16155,0.8303112569560028,5.592451383821667e-05,1319.0824480735437,13029.556773652608,2576,0.07091228354685873,,2297.3305624136005
34,204.71593769999998,1315,16528,0.832804584655424,5.4742955673136396e-05,1319.2294955717884,13859.335454936427,2609,0.0708373846410385,,2365.265034315568
35,205.257798125,1324,16855,0.8371769300637781,5.3903607627569254e-05,1319.5124917891433,14686.205712473387,2639,0.07088324403025358,,2433.3695893451254
36,205.7995532,1314,17331,0.8381556767340916,5.2329130095154626e-05,1320.2439013340934,15504.886475344556,2677,0.07132460431969576,,2501.15284604403
37,206.34120292499998,1314,17936,0.840625124319978,5.0573043215014925e-05,1320.9736800380276,16315.16045663517,2721,0.071156271803526,,2567.687240934061
38,206.88274729999998,1317,18589,0.8415937915656597,4.8725902707599567e-05,1320.903938934039,17114.525017553864,2754,0.07001912219082057,,2632.6995854945244
39,207.424186325,1303,18955,0.8431564976534377,4.7765493862080084e-05,1320.4228408344218,17894.670026500822,2779,0.0705018689404302,-inf,2695.5353688644755
40,207.96552,1296,19260,0.844165982526256,4.6992094329005564e-05,1320.2379442342722,18654.55333076591,2794,0.07039415730485034,-inf,2756.611655983095
41,208.506748325,1300,19645,0.8476484869242688,4.620596821609533e-05,1319.8993861695367,19396.839407460724,2822,0.07032548362489709,-inf,2815.9011302633726
42,209.0478713,1326,20034,0.8491768105118729,4.539110597134236e-05,1319.5087091440098,20116.782554530862,2872,0.07017464983169529,-inf,2872.597159618509
43,209.588888925,1330,20581,0.8502736512177026,4.416776537414693e-05,1319.527305261702,20809.35704092918,2915,0.07000590811802289,inf,2926.4401685201824
44,210.12980119999997,1328,21040,0.8513731200582484,4.319060065230562e-05,1319.922942761985,21470.784457178685,2933,0.06932091404695052,inf,2978.2596887811155
45,210.670608125,1327,21541,0.8534308197221572,4.221978924122673e-05,1320.4367482841942,22086.746404221645,2971,0.06940933351257675,inf,3026.7191782372743
46,211.2113097,1315,21989,0.8557212941711507,4.1391181879227564e-05,1320.815126050395,22656.226868105296,3005,0.06995109737589458,inf,3070.8604271896847
47,211.751905925,1324,22229,0.8575135521308375,4.1019543273419633e-05,1321.4820041223784,23176.34345058734,3016,0.06940506721862602,inf,3110.347958051085
48,212.29239679999998,1343,22583,0.8580327959771828,4.039702429271106e-05,1322.067158939022,23635.00534553399,3031,0.06819017700609627,inf,3144.7233006409506
49,212.83278232499998,1342,23029,0.8587529108532552,3.959758891747384e-05,1322.1197762123463,24037.327051574888,3067,0.06830584088264238,0.1588523385626536,3174.889533171698
50,213.37306249999997,1335,23485,0.8598387128136875,3.88189035130333e-05,1322.724410518899,24384.410201816114,3107,0.068787097025095,0.23414816833661276,3200.288024643758
51,213.91323732499998,1326,24047,0.8611437003932625,3.79007834335312e-05,1323.8459987768438,24667.9128179569,3149,0.06909312819932738,0.07002515920760345,3220.033160433923
52,214.45330679999998,1333,24702,0.8624756676121401,3.6906828174596266e-05,1324.8468368479214,24921.803846066254,3215,0.06945865062459017,0.06972530402577756,3236.9070647126155
53,214.993270925,1331,25280,0.8630074298534857,3.603521774827699e-05,1325.1008629866787,25253.17778432079,3276,0.07008849852039875,0.06966282968005795,3258.90609073812
54,215.5331297,1318,25832,0.8629495266956824,3.5202314053017966e-05,1324.7981607737179,25699.01436046067,3305,0.0699469980233467,0.06955536113394574,3289.255951437116
55,216.07288312499998,1314,26390,0.8648478670709356,3.448906791637166e-05,1325.1423135291598,26184.646832317332,3342,0.06994382973440172,0.06944263605143589,3324.0512582390807
56,216.61253119999998,1327,26877,0.8650803831098881,3.3858332019956484e-05,1326.069809055672,26677.169041200876,3396,0.07005288894928996,0.0693354274251089,3359.983465084082
57,217.152073925,1333,27220,0.8652291434094919,3.3423306810734806e-05,1327.2736868331986,27179.065437495236,3423,0.06985471123443575,0.06923897047441227,3396.7623049219037
58,217.69151129999997,1326,27507,0.8680312398394996,3.315500706006263e-05,1328.2481596411894,27694.111554055053,3431,0.06979128986143183,0.06916476224019853,3434.638678112689
59,218.230843325,1327,27944,0.868212549145114,3.261872296446309e-05,1328.889510521164,28223.725769552562,3463,0.06967359225209316,0.06908622543689329,3473.532537543253
60,218.77006999999998,1327,28498,0.868144571802742,3.195114540512833e-05,1329.7801762214062,28760.536003079924,3498,0.06936593667453361,0.06901144381165962,3513.4177444562056
61,219.30919132499997,1319,29144,0.8681762475955156,3.120130269885052e-05,1330.9414482773986,29297.648757615694,3535,0.06914208678065274,0.06893457676976171,3553.2749326144867
62,219.84820729999998,1311,29673,0.868951283960652,3.063787052960482e-05,1331.73976760513,29839.42542299882,3572,0.0692722252674365,0.06886488396235672,3593.055403293324
63,220.38711792499998,1324,30167,0.8691522224557424,3.0133905018747787e-05,1332.4612335499985,30391.439851411676,3605,0.0687354373477637,0.06878216531382611,3632.9529547667426
64,220.9259232,1335,30853,0.8692686507714266,2.9448765186375315e-05,1333.110942490178,30962.226777502856,3658,0.06840948152794986,0.06865167605261863,3672.914562051165
65,221.464623125,1330,31493,0.8701622824311823,2.884866500119956e-05,1333.1873881627869,31544.571428570824,3699,0.06834248738784175,0.06852623635777769,3713.025912251622
66,222.0032177,1336,31921,0.86932404321908,2.8423215406868726e-05,1332.4336451561503,32129.681623592216,3732,0.06810202411485747,0.068402192089402,3752.6678973475464
67,222.54170692499997,1336,32354,0.8705973257298546,2.8067487450185526e-05,1331.3506308183396,32714.077079887928,3776,0.06848466937845268,0.06827612180060004,3791.741828806922
68,223.0800908,1334,32808,0.8704844215444587,2.7657254290667177e-05,1331.2608439602,33296.960497405875,3827,0.06894953494663328,0.06813005062282211,3830.7092572877473
69,223.61836932499997,1334,33226,0.8703398065724872,2.729022345956626e-05,1331.6006251556971,33880.32147953456,3848,0.06860762177734958,0.0679575475457638,3868.9344039501857
70,224.1565425,1329,33977,0.8697053263836744,2.6638854642969687e-05,1332.083150241203,34461.959228973945,3879,0.0679290793395727,0.06775890487160068,3906.3754784932094
71,224.69461032499999,1322,34657,0.8700422735223692,2.6099963207510698e-05,1332.3073229291463,35042.47774581464,3926,0.06796430419235786,0.06757213313093621,3944.028199959153
72,225.23257279999999,1317,35336,0.8700397124616915,2.5575111333716204e-05,1332.1810233527115,35618.11434007497,3985,0.06823439703835484,0.0673956279162081,3980.948311399955
73,225.77042992499997,1330,36314,0.8700678242154535,2.4870450040460025e-05,1332.4254683005022,36181.88011053408,4042,0.06744866050972759,0.06719631577081314,4016.4673265531856
74,226.30818169999998,1343,37000,0.8699872642519537,2.4398779040635884e-05,1332.969081972386,36734.834175178796,4059,0.06626708387436706,0.06696917498831231,4051.0559242564177
75,226.84582812499997,1332,37502,0.8700242014773532,2.405375176879605e-05,1333.1283381276785,37281.90509411241,4088,0.06629213987480191,0.0667441150131931,4085.003533488789
76,227.3833692,1338,38150,0.8696880407569096,2.3625123349910616e-05,1332.9415162291075,37819.16750096193,4142,0.06624484587314937,0.06652874883196364,4118.063285691556
77,227.92080492499997,1343,38574,0.87010037851645,2.3370319854864225e-05,1332.4774287073064,38342.750277468745,4170,0.06606789422970116,0.0663279047796015,4150.347459738533
78,228.45813529999998,1353,38793,0.8693067287349536,2.3218662626467778e-05,1332.6117692359708,38855.55545991907,4224,0.066660780400589,0.06614663732857812,4182.993703141554
79,228.99536032499998,1369,39060,0.8691277262341458,2.3059290712216335e-05,1332.9673831796615,39352.336293007014,4262,0.06671052803044186,0.06599783621746158,4215.72663027467
80,229.53248,1352,39621,0.86926662631248,2.2714641780879562e-05,1332.9839860472237,39825.08213096483,4261,0.06607689294057864,0.06586000427649362,4246.868853201576
81,230.069494325,1336,40426,0.8686441253792921,2.2221645571227734e-05,1332.66003759992,40283.27778658556,4289,0.0656205193718355,0.06573582328042228,4277.191170807864
82,230.60640329999998,1320,41008,0.868302707705708,2.1878217791415744e-05,1332.451131395929,40718.36578404869,4321,0.06565653159203864,0.06564302546089001,4307.10099889004
83,231.143206925,1321,41480,0.8687016218294412,2.1631555114157254e-05,1332.3389657749638,41109.29790029141,4361,0.06575992754703805,0.06557921628689062,4334.974201001071
84,231.67990519999998,1328,41757,0.8683284847277679,2.147786204773227e-05,1331.8354889125203,41456.47679449059,4366,0.06524974490101064,0.06553145592022813,4359.662438560245
85,232.216498125,1323,42073,0.8683608504247778,2.1309468722080438e-05,1331.0788466329673,41776.0053002325,4362,0.06475947544640245,0.06550212001717075,4382.7377743549405
86,232.75298569999998,1320,42524,0.868249886800152,2.1071980555289585e-05,1330.0364674171299,42070.23889555741,4384,0.06456454842140728,0.06549627843325521,4404.845319259695
87,233.289367925,1319,42943,0.867778574191436,2.0848034167582068e-05,1329.0916895059656,42333.44870778419,4414,0.0645246657486665,0.06549666029615676,4425.083625903107
88,233.8256448,1317,43286,0.8676471171202086,2.0673523722752713e-05,1328.048857278735,42555.79954245767,4444,0.06464610868104774,0.06552120704552339,4442.997689641809
89,234.36181632499998,1318,43357,0.8677489292852631,2.064152166524568e-05,1327.3039932954061,42728.929805883796,4464,0.06493822715886291,0.06556228600328345,4458.189449364566
90,234.89788249999998,1318,43296,0.8672589311593729,2.065984399350548e-05,1326.9391152687238,42874.88235294036,4468,0.06507850857954225,0.06561373912438126,4472.272735509212
91,235.433843325,1333,43350,0.8668004592010585,2.0629756032107444e-05,1326.3174703843545,43003.63500871964,4475,0.06481869345288159,0.0656774642750395,4485.3288636208335
92,235.9696988,1344,43505,0.8665578153052318,2.0553540364441826e-05,1325.9646198101627,43097.82663253899,4492,0.06470254506726286,0.06574063692309005,4496.027928152306
93,236.505448925,1335,43609,0.8666098942893835,2.0499831912981585e-05,1325.4014586966607,43152.73360664939,4514,0.06516896565136845,0.06584041619007266,4504.857097555918
94,237.04109369999998,1324,43737,0.8664654382940954,2.042924193747425e-05,1324.332918072864,43174.35932863629,4553,0.06596602221610436,0.0659853044576044,4512.601259371587
95,237.576633125,1315,43790,0.8658853313998153,2.0385764129483584e-05,1323.0621305125571,43156.94817549579,4567,0.06629450494908061,0.06614415888190428,4517.873836326897
96,238.11206719999998,1320,43789,0.8659634438688039,2.039048350252664e-05,1321.773381050508,43106.26290516124,4561,0.06608555703168884,0.06630674294836122,4520.925977938258
97,238.64739592499998,1316,43784,0.8653764850454776,2.0377142437729056e-05,1320.4420032163555,43032.05483702833,4579,0.06649061577430991,0.06649136435205619,4522.933973589349
98,239.1826193,1307,43699,0.865240351462597,2.0410463093569472e-05,1319.1170128428478,42947.148044122485,4592,0.06704837126237571,0.06670409042662453,4525.476500033888
99,239.71773732499997,1313,43564,0.8654717432609225,2.0484053472365684e-05,1318.3132120772584,42870.47611497347,4584,0.06700333890810815,0.0669126435016472,4529.314684364225
100,240.25275,1326,43225,0.8654328986505,2.065521608273467e-05,1317.830732292892,42794.676663117265,4579,0.06719141791713588,0.06709481867839598,4532.449772361688
101,240.787657325,1333,42897,0.8649750843904328,2.0810679539756346e-05,1317.0659131576908,42715.15033183003,4582,0.06761389782466837,0.06728517473784443,4535.401186889764
102,241.3224593,1335,42706,0.8650023747478218,2.090842316472461e-05,1316.5858116831387,42646.64157738485,4580,0.06784783316953136,0.06748660497047151,4540.054882330202
103,241.85715592499997,1322,42441,0.864426750181391,2.102256256673049e-05,1316.1641713288836,42582.5685292977,4561,0.06809208015364006,0.06769259743753159,4545.40884278231
104,242.3917472,1311,42213,0.8640504083213235,2.1124893851677753e-05,1315.8365081881554,42510.741602300484,4545,0.06831790671632586,0.0679251190811527,4551.640829916785
105,242.92623312499998,1305,42186,0.8638615542876957,2.11311258112007e-05,1316.0594803959068,42440.631565833064,4552,0.06861276550896866,0.06816720652838754,4559.158644589825
106,243.46061369999998,1306,41785,0.8647030136247108,2.1361768166820098e-05,1316.1935038165957,42395.24421844129,4537,0.06901987294699574,0.06838320665840539,4567.2852839248035
107,243.994888925,1310,41522,0.863747888775786,2.1479853993230528e-05,1316.3109923214317,42375.63077306314,4522,0.06899329102625645,0.06857573355281875,4576.300006795083
108,244.52905879999997,1310,41798,0.8628771528607923,2.1311923356569657e-05,1316.1822011823344,42371.59586853528,4534,0.06870964090158058,0.06875717081155097,4585.846632992732
109,245.063123325,1314,42001,0.8633129275796555,2.1218397217284526e-05,1316.0640105098391,42388.04534643965,4565,0.06898100935339199,0.06893320240385353,4596.706629821652
110,245.59708249999997,1322,41765,0.8623491049005171,2.1322580048476055e-05,1315.9902829055898,42430.48066773798,4565,0.06914912709720784,0.06908852975927798,4608.744682778684
111,246.130936325,1332,41509,0.862505803534046,2.146765073385385e-05,1315.6146232077483,42514.69913248236,4542,0.06891115885567085,0.06920785892339644,4621.965072821493
112,246.66468479999997,1320,41534,0.8631762817630669,2.1464571586091087e-05,1315.0318920020586,42646.449138145,4549,0.06930910165148813,0.06929818691766987,4637.189381412853
113,247.19832792499997,1311,41826,0.8629529675416884,2.1299591942285286e-05,1314.5808738589524,42824.844752994715,4574,0.06950056850767689,0.06936627601726211,4655.121180547601
114,247.7318657,1309,42464,0.8621360146885437,2.0948512080878233e-05,1314.1383949806086,43048.40111893733,4614,0.06923483242730256,0.0694152042116737,4675.591564927769
115,248.265298125,1304,42649,0.8624878814902607,2.0860754178020575e-05,1313.4507916373846,43307.09796371295,4625,0.06927856462520633,0.06946103823828505,4698.554531246371
116,248.79862519999998,1305,42492,0.862427427307537,2.0939311610642604e-05,1312.7791795963412,43589.691838998915,4624,0.06949757523572281,0.0694896636767779,4722.575686878434
117,249.33184692499998,1299,42740,0.8621956715984717,2.0805378045859698e-05,1312.8723866905,43888.85227298383,4664,0.07001009712431788,0.06947365092280358,4746.335545538879
118,249.8649633,1304,43226,0.8614594306460737,2.054910144186999e-05,1313.3920587102511,44221.88844594357,4707,0.06992859220668357,0.06942310588452788,4771.311807741873
119,250.397974325,1319,43619,0.861591555373828,2.0368594689688605e-05,1313.619606333074,44595.73856712411,4740,0.06968096243342473,0.06936090547943198,4798.467960769121
120,250.93087999999997,1328,44276,0.861950076569216,2.0069620857064728e-05,1313.2506059027132,45011.337425535385,4799,0.06966165399487168,0.06930370975460498,4828.477949670342
