,x_(nm),baseline_dark,baseline_light,baseline_mirror,baseline_calibration,baseline_dark_smoothed,baseline_light_smoothed,raw_signal,calibrated_signal,calibrated_signal_smoothed,raw_signal_smoothed
0,186.23,1061,1058,0.3621226043733797,-0.12070753479112656,1037.7151155253255,3825.782694758304,1025,4.345471252480556,,1209.9300935016804
1,186.775442325,1050,1059,1.18800459154587,0.1320005101717633,1045.2404159986838,2877.4892354490826,1011,-5.148019896698769,,1143.6422044515273
2,187.3207793,1048,1051,1.908567993433533,0.6361893311445109,1052.2813873170614,2047.8285819085163,1006,-26.719951908069458,,1086.14797606835
3,187.86601092499998,1055,1054,1.7279185264672412,-1.7279185264672412,1058.8525990108988,1332.7426071380228,1008,81.21217074396034,,1037.138203231623
4,188.41113719999998,1056,1067,1.043047789334166,0.094822526303106,1064.9686206106371,728.1731841390206,1016,-3.79290105212424,,996.3036808208202
5,188.956158125,1061,1067,0.840365554154959,0.14006092569249315,1070.6440216467167,230.0621859129269,1011,-7.0030462846246575,,963.3352037154159
6,189.50107369999998,1064,1059,0.8202728553565946,-0.1640545710713189,1075.893371649579,-165.64851453883966,1017,7.710564840351989,,937.923566794884
7,190.045883925,1073,1073,0.837733819880384,inf,1080.731240149664,-463.01704421486147,1037,-inf,,919.7595649386989
8,190.59058879999998,1087,1083,0.8116271105193998,-0.20290677762984996,1085.172196677413,-666.1015301137209,1049,7.710457549934299,,908.5339930263344
9,191.135188325,1093,1084,0.8262856362484797,-0.09180951513871997,1089.2308107632668,-778.9600992339997,1054,3.580571090410079,,903.937645937265
10,191.67968249999998,1105,1092,0.8012221689422371,-0.06163247453401824,1092.921651937666,-805.6508785742794,1065,2.4652989813607293,,905.6613185509646
11,192.22407132499998,1107,1082,0.7775424502505143,-0.03110169801002057,1096.2592897310515,-750.2319951331433,1058,1.523983202491008,,913.3958057469072
12,192.7683548,1088,1076,0.7753865851703869,-0.06461554876419891,1099.2582936738638,-616.7615759091718,1042,2.9723152431531497,,926.8319024045672
13,193.312532925,1081,1072,0.7956261498651602,-0.08840290554057335,1101.9332332965441,-409.29774790094916,1036,3.978130749325801,,945.6604034034186
14,193.8566057,1091,1083,0.7908861747409445,-0.09886077184261806,1104.2986781295328,-131.89863810705447,1047,4.349873961075194,,969.5721036229355
15,194.400573125,1109,1102,0.7942231778648126,-0.1134604539806875,1106.369197703271,211.3776264739272,1060,5.559562245053688,,998.2577979425921
16,194.9444352,1113,1105,0.7947581770897779,-0.09934477213622224,1108.1593615481995,616.4729188434162,1065,4.768549062538668,,1031.4082812418624
17,195.488191925,1116,1118,0.7914877943554887,0.39574389717774433,1109.6837391947588,1079.3291120028284,1077,-15.43401198993203,,1068.7143484002206
18,196.0318433,1119,1126,0.7911116722494277,0.11301595317848967,1110.9569001733898,1595.8880789535838,1087,-3.6165105017116694,,1109.866794297141
19,196.575389325,1115,1109,0.7900325230816138,-0.13167208718026896,1111.9934140145333,2162.091692697098,1084,4.0818347025883375,,1154.5564138120974
20,197.11883,1115,1091,0.798472358442206,-0.03326968160175858,1112.8078502486303,2773.881826234792,1073,1.3973266272738605,,1202.4740018245643
21,197.662165325,1120,1091,0.7981102791346143,-0.02752104410809015,1113.4147784061213,3427.2003525680802,1066,1.486136381836868,,1253.310353214015
22,198.2053953,1118,1098,0.8040599544843242,-0.04020299772421621,1113.8287680174471,4117.989144698384,1070,1.9297438907623783,,1306.7562628599248
23,198.74851992499998,1102,1092,0.8074165803696804,-0.08074165803696805,1114.0643886130485,4842.190075627121,1071,2.5029913991460093,,1362.5025256417669
24,199.2915392,1105,1096,0.8060625325032217,-0.08956250361146907,1114.1362097233666,5595.745018355703,1076,2.597312604732603,,1420.2399364390162
25,199.83445312499998,1135,1123,0.8122546130835153,-0.06768788442362628,1114.0588008788209,6374.595845885403,1099,2.436763839250546,-inf,1479.6592901311185
26,200.3772617,1139,2095,0.8144257223941842,0.0008519097514583517,1114.5587442523968,7066.570137488821,1178,0.03322448030687571,-inf,1533.0712813426965
27,200.919964925,1112,6115,0.8150182986479615,0.00016290591617988437,1114.4175632516942,7774.664907472274,1475,0.059134847573298024,inf,1586.5544632947212
28,201.4625628,1099,10696,0.8232603193402961,8.57830904803893e-05,1113.4993544587433,8498.174296133386,1798,0.05996238024579212,inf,1640.855421413817
29,202.005055325,1100,12623,0.8194894939197722,7.111772055191984e-05,1113.1017463588994,9237.413961810962,1952,0.0605922979102357,inf,1695.985526285954
30,202.5474425,1106,13523,0.8269202298982968,6.659581460081315e-05,1112.639493533241,9991.327504586548,2036,0.06193410757875623,inf,1751.7167319757755
31,203.089724325,1105,14182,0.8298864771900701,6.34615337761008e-05,1111.7276722009346,10759.1308749913,2079,0.06181153389792218,inf,1807.3899522072634
32,203.63190079999998,1118,14854,0.8293789756785952,6.0379948724417236e-05,1110.6313393281628,11541.522911050994,2129,0.061044128160385826,inf,1863.8644589911078
33,204.173971925,1122,15337,0.8303112569560028,5.841092205107301e-05,1109.970916668533,12335.328410609289,2170,0.061214646309524515,-0.012908126669414748,1922.01159709163
34,204.71593769999998,1123,15696,0.832804584655424,5.7147092887903925e-05,1109.8874040181897,13131.288364402113,2190,0.06097594811139349,0.08690937760042924,1980.731953158584
35,205.257798125,1121,16037,0.8371769300637781,5.612610150601891e-05,1110.001789394982,13922.64196244509,2199,0.06050393742348839,0.09126014396776227,2038.7862918752016
36,205.7995532,1114,16468,0.8381556767340916,5.458875060141277e-05,1110.3742327119314,14705.622981267701,2221,0.060429746915763936,0.07482381505744326,2096.672518063789
37,206.34120292499998,1112,17069,0.840625124319978,5.268064951557173e-05,1110.772588280574,15482.32437880783,2258,0.060372024344845204,0.03733634179633899,2153.967972094457
38,206.88274729999998,1101,17682,0.8415937915656597,5.0756515986108177e-05,1110.0660717116823,16249.183514915088,2299,0.0608063061513576,0.05113675203188844,2209.26442275019
39,207.424186325,1095,18012,0.8431564976534377,4.984078132372393e-05,1108.562277741264,16998.020068404396,2328,0.06145368337215161,0.11091437827194923,2262.477383406149
40,207.96552,1093,18269,0.844165982526256,4.9147996188068e-05,1107.7385897755116,17728.874923553987,2347,0.06163158721983727,0.20278353081247236,2314.0356293460336
41,208.506748325,1086,18640,0.8476484869242688,4.82880532598991e-05,1107.575392421098,18442.470678837217,2372,0.06209843649223024,0.3570358347708139,2364.0603184669635
42,209.0478713,1094,19066,0.8491768105118729,4.72499894564808e-05,1107.0442818636677,19134.78665428399,2418,0.06255898604038058,0.5170810431958108,2412.4992638564395
43,209.588888925,1107,19613,0.8502736512177026,4.5945836551264595e-05,1106.7650682914464,19800.54991052987,2464,0.062348500200066055,0.05021738752626299,2459.2277741284724
44,210.12980119999997,1108,20060,0.8513731200582484,4.4922600256344895e-05,1107.0569435321086,20436.271285872448,2468,0.06109473634862906,-0.12588328225578055,2504.4364991279053
45,210.670608125,1097,20512,0.8534308197221572,4.395729177039182e-05,1107.3609594781096,21028.636866066776,2488,0.061144592852615025,-0.07731535249574521,2546.3727604248757
46,211.2113097,1089,20900,0.8557212941711507,4.3194250374597486e-05,1107.7053613898179,21576.180932750045,2515,0.06159500103417601,-0.0952476587156813,2584.4728985933502
47,211.751905925,1095,21094,0.8575135521308375,4.2877821497616754e-05,1108.1861423814596,22074.479354005332,2543,0.06208708552854906,-0.10498727897014346,2618.51373757045
48,212.29239679999998,1114,21444,0.8580327959771828,4.2205253122340525e-05,1108.418944936444,22515.197173208475,2581,0.06191510633047355,-0.09420485848466467,2647.7744456272567
49,212.83278232499998,1117,21892,0.8587529108532552,4.133588018547558e-05,1108.2435389249827,22903.057894855618,2606,0.06154912559617314,-0.055706596341512905,2673.0576003985984
50,213.37306249999997,1119,22353,0.8598387128136875,4.0493487464146536e-05,1108.1349747445934,23239.3449681755,2623,0.06090220514607639,-0.0011416547940636635,2694.944121044593
51,213.91323732499998,1109,22900,0.8611437003932625,3.95183195077446e-05,1108.2252825658352,23514.300278601553,2654,0.0610558036394654,0.062350695143851054,2712.675643842391
52,214.45330679999998,1113,23543,0.8624756676121401,3.8451879964874725e-05,1108.6858139481994,23758.730412919434,2712,0.06148455606383468,0.06166906762969322,2728.644136899991
53,214.993270925,1131,24150,0.8630074298534857,3.7491091266062196e-05,1108.0546105234332,24078.09150830097,2748,0.06062309457722257,0.06166882886534395,2749.8464517882094
54,215.5331297,1114,24692,0.8629495266956824,3.659977634641116e-05,1106.8292600058678,24505.94448345329,2784,0.06112162649850664,0.061684062565370235,2778.452377177233
55,216.07288312499998,1109,25203,0.8648478670709356,3.589474006271004e-05,1106.6513397811743,24972.477043647166,2829,0.06173895290786127,0.06169974618271896,2810.7787718860586
56,216.61253119999998,1122,25636,0.8650803831098881,3.528923811331844e-05,1107.0476341479775,25446.17413757907,2879,0.0620031913651005,0.06176209444791848,2844.964710412413
57,217.152073925,1126,25918,0.8652291434094919,3.489952982451968e-05,1107.7939024666257,25928.848037327643,2904,0.062051364027995985,0.06182430015638897,2880.195746222962
58,217.69151129999997,1115,26194,0.8680312398394996,3.461187606521391e-05,1108.8720242813895,26427.6332646261,2904,0.06192064628066768,0.061852068743425026,2916.2364266460745
59,218.230843325,1104,26662,0.868212549145114,3.3970285200137495e-05,1109.7370042356351,26939.206890302776,2924,0.061825919064250244,0.06188376650766943,2953.1927789983347
60,218.77006999999998,1098,27259,0.868144571802742,3.318468605186124e-05,1110.6405354594456,27458.41595506074,2973,0.06222128634723983,0.06190536447211688,2990.621350426906
61,219.30919132499997,1097,27913,0.8681762475955156,3.237530756248193e-05,1111.6264921062552,27979.56236834303,3006,0.06180446213677801,0.06190777977203528,3027.8885818477756
62,219.84820729999998,1095,28382,0.868951283960652,3.184488159052487e-05,1112.4954359101919,28504.92407528995,3026,0.06149246635130352,0.06190265865811795,3065.313189426655
63,220.38711792499998,1110,28857,0.8691522224557424,3.1324187207833e-05,1112.9966703662383,29042.74817096594,3074,0.06152070367618402,0.06189793779827404,3103.602391900097
64,220.9259232,1127,29507,0.8692686507714266,3.062962123930326e-05,1112.9272010690856,29598.14251738374,3127,0.06125924247860652,0.061903152426314216,3143.044395116476
65,221.464623125,1111,30072,0.8701622824311823,3.0046002639107154e-05,1112.6571156764378,30162.366531517688,3177,0.06207504145239538,0.061919922208955445,3183.116831638255
66,222.0032177,1104,30498,0.86932404321908,2.9574880697389943e-05,1112.2341615891426,30725.560284490562,3220,0.06258044755567711,0.061939839948181884,3223.1127318851454
67,222.54170692499997,1121,30902,0.8705973257298546,2.9233314050228486e-05,1111.1771048041646,31286.281206821746,3249,0.06220849229888622,0.061982444828718924,3263.04199415609
68,223.0800908,1118,31351,0.8704844215444587,2.8792525437252628e-05,1110.2436068766917,31847.88479920209,3280,0.06224943999534018,0.06204915936667752,3303.966409205128
69,223.61836932499997,1103,31768,0.8703398065724872,2.8382188376732013e-05,1109.6319735441134,32411.507961674615,3292,0.06212861035666638,0.06211283291254265,3345.375025481827
70,224.1565425,1098,32486,0.8697053263836744,2.770821098456972e-05,1108.6488482185116,32973.7910031931,3340,0.062121809027405314,0.062140332041385096,3385.6411017236433
71,224.69461032499999,1095,33143,0.8700422735223692,2.71480988992252e-05,1107.0627647285116,33534.6027769592,3390,0.062304886973721836,0.06216389068883081,3425.188158282116
72,225.23257279999999,1094,33854,0.8700397124616915,2.6557988780881916e-05,1105.2503793970207,34089.65969784075,3442,0.06235815765751074,0.06218663340354353,3463.805182450272
73,225.77042992499997,1100,34762,0.8700678242154535,2.5847181516708855e-05,1103.7375025481679,34632.3844481182,3524,0.06265356799650226,0.062204378535708205,3501.2844005526067
74,226.30818169999998,1096,35389,0.8699872642519537,2.5369237577696723e-05,1102.619628983648,35165.88763052323,3570,0.06276349376722169,0.06221979076125271,3538.5948719109606
75,226.84582812499997,1093,35823,0.8700242014773532,2.505108555938247e-05,1101.5194908151727,35694.52800742869,3588,0.06250245847065926,0.062220837745650355,3575.2559967382495
76,227.3833692,1118,36451,0.8696880407569096,2.461404468222086e-05,1100.692880925934,36212.66479421889,3640,0.062076620688561006,0.062192036974419204,3610.5629119571663
77,227.92080492499997,1117,36914,0.87010037851645,2.4306516705770036e-05,1099.796190174162,36717.51527780853,3665,0.061933004566302054,0.06216382492478825,3644.945955740717
78,228.45813529999998,1134,37142,0.8693067287349536,2.4142044232808087e-05,1098.8472219076098,37211.09232372123,3694,0.061803633235988704,0.06214610257916315,3678.7601078166417
79,228.99536032499998,1147,37450,0.8691277262341458,2.394093397884874e-05,1098.6849758771223,37687.883983781474,3725,0.06171972779747205,0.06209622232511907,3711.268952864093
80,229.53248,1115,37982,0.86926662631248,2.357844756319961e-05,1098.417155541441,38141.517112504655,3749,0.06210563088146777,0.06204552308346253,3741.9343133479088
81,230.069494325,1100,38765,0.8686441253792921,2.3062368920198915e-05,1097.9572357244574,38578.14369521319,3781,0.06183021107505329,0.062000724573923596,3771.2973113773082
82,230.60640329999998,1083,39337,0.868302707705708,2.2698350700729547e-05,1098.0831728917772,38988.64619810113,3804,0.061762212256685094,0.061964651891936784,3799.610953815415
83,231.143206925,1080,39710,0.8687016218294412,2.248774584078284e-05,1098.467054746406,39355.00983034647,3844,0.062156129503923775,0.06194421857369315,3825.691567192842
84,231.67990519999998,1089,39993,0.8683284847277679,2.2319773923703678e-05,1098.2340030351552,39677.31894267065,3874,0.06216057037751475,0.06193167301101231,3848.425921311847
85,232.216498125,1088,40275,0.8683608504247778,2.215941129519427e-05,1097.3899069061376,39971.51471154422,3896,0.06222362691690551,0.06191321549806179,3868.3532809349413
86,232.75298569999998,1082,40679,0.868249886800152,2.192716334066096e-05,1096.390744977215,40241.9372352707,3923,0.06229507105081778,0.0619051569011106,3886.833314457784
87,233.289367925,1076,41059,0.867778574191436,2.1703688422365404e-05,1095.496659040954,40480.874040181334,3947,0.062311289460611076,0.06188954540744815,3903.120840789071
88,233.8256448,1083,41303,0.8676471171202086,2.1572529018403993e-05,1094.5078484223668,40676.928446849655,3958,0.06202102092791148,0.06187199852664883,3916.291716686599
89,234.36181632499998,1088,41347,0.8677489292852631,2.1554160045834798e-05,1094.0703300187793,40824.15375206607,3959,0.0618819934915917,0.06185893082462155,3926.6702303562174
90,234.89788249999998,1084,41316,0.8672589311593729,2.1556445892806048e-05,1094.2634940768548,40941.52189177479,3960,0.061996338387710195,0.06184129222757736,3935.5078484223113
91,235.433843325,1081,41433,0.8668004592010585,2.1480978866005614e-05,1094.0330471811155,41037.10215406839,3968,0.06201558598615821,0.06183471779140805,3942.593762033039
92,235.9696988,1089,41627,0.8665578153052318,2.1376432367290733e-05,1093.775283698364,41098.240435796164,3975,0.06169238381200105,0.06183149263972966,3947.232576049212
93,236.505448925,1087,41689,0.8666098942893835,2.1344019858366177e-05,1093.7980022197348,41117.974291602644,3961,0.061342713072944394,0.061824330882028176,3948.976058347792
94,237.04109369999998,1085,41769,0.8664654382940954,2.1297449569710336e-05,1093.5561847380252,41103.49070194036,3960,0.06123016751291722,0.06180401240607457,3947.4427959862433
95,237.576633125,1097,41801,0.8658853313998153,2.1272733181009613e-05,1092.8700763323989,41052.97030510239,3966,0.06103147149631658,0.06177727983072806,3942.7100727082534
96,238.11206719999998,1106,41763,0.8659634438688039,2.129924598147438e-05,1092.3243335069667,40970.38363269757,3965,0.06089454426103525,0.06175026330673054,3935.8422161316594
97,238.64739592499998,1104,41717,0.8653764850454776,2.1307869033203104e-05,1091.7537430066157,40863.64291376849,3972,0.0611109683872265,0.06173353625169162,3927.474008471238
98,239.1826193,1097,41579,0.865240351462597,2.137345861031068e-05,1091.305216426172,40746.889963531794,3983,0.061683801549356626,0.061715513868422216,3918.4710185960425
99,239.71773732499997,1102,41352,0.8654717432609225,2.1502403559277577e-05,1091.0639878592738,40637.46533330235,3966,0.06158288379377098,0.06170163668873373,3910.3887970281703
100,240.25275,1107,40938,0.8654328986505,2.1727621667808994e-05,1090.789213798706,40527.12716029731,3944,0.06164126267157412,0.06170870512024933,3903.110059117912
101,240.787657325,1103,40597,0.8649750843904328,2.1901430201813764e-05,1090.5270561054404,40411.52916260766,3928,0.06187154032012388,0.061736255930267575,3896.4956397652654
102,241.3224593,1097,40336,0.8650023747478218,2.204445512749616e-05,1091.0336813970662,40309.47158485958,3902,0.06183469663262673,0.06176028076400771,3891.453985367658
103,241.85715592499997,1104,40030,0.864426750181391,2.2206924682253277e-05,1091.558948107524,40214.65113592529,3886,0.061779664466028616,0.061777976719792335,3886.6019388886884
104,242.3917472,1099,39820,0.8640504083213235,2.2314775143238127e-05,1092.4533511517607,40114.77299599008,3870,0.06183424192191285,0.061804486710247894,3882.335092527503
105,242.92623312499998,1088,39723,0.8638615542876957,2.2359558801286287e-05,1093.911390971462,40021.411900608546,3869,0.062181933026377166,0.0618272667284486,3878.971732088988
106,243.46061369999998,1089,39326,0.8647030136247108,2.2614300641386898e-05,1094.9293755237734,39954.07501868595,3857,0.06259638417535894,0.06184271703255521,3876.467349203758
107,243.994888925,1082,39081,0.863747888775786,2.273080577846222e-05,1095.5869895127653,39912.5300459799,3840,0.06269156233699881,0.06184942516488144,3875.0757208543055
108,244.52905879999997,1078,39255,0.8628771528607923,2.2602015686428798e-05,1095.7612176946038,39888.20913270892,3836,0.062336359263170625,0.06186296468312905,3874.9655031823313
109,245.063123325,1089,39404,0.8633129275796555,2.2531982972195107e-05,1095.9066117012633,39883.55441799285,3840,0.06198548515650874,0.061894891474164854,3877.087748306795
110,245.59708249999997,1100,39168,0.8623491049005171,2.2652860799109936e-05,1096.2580126389971,39908.38451606981,3841,0.06209149145036033,0.06192540194082953,3881.3945276222953
111,246.130936325,1100,38870,0.862505803534046,2.2835737451258832e-05,1096.4318557611514,39977.13705859626,3823,0.0621817130797778,0.061958143865379296,3888.7530181883326
112,246.66468479999997,1095,38897,0.8631762817630669,2.2834143213667713e-05,1096.2243538924795,40094.05014836047,3813,0.062063201254748845,0.062002243850999075,3899.7910258442257
113,247.19832792499997,1095,39181,0.8629529675416884,2.2658009965385927e-05,1095.680513714899,40259.480350630045,3820,0.06174307715567665,0.06205357546603435,3914.442071168014
114,247.7318657,1091,39767,0.8621360146885437,2.2291240425290717e-05,1095.013386486649,40470.44927404847,3848,0.061456949852526505,0.06209669529418279,3931.835307707914
115,248.265298125,1089,39991,0.8624878814902607,2.217078508791992e-05,1094.544134634965,40720.257808783106,3845,0.0611026837023073,0.06213470635256439,3951.949874289263
116,248.79862519999998,1090,39909,0.862427427307537,2.2216631734654086e-05,1094.026931527307,40999.292350901844,3851,0.06134012021937993,0.062181402717870836,3974.6061745452134
117,249.33184692499998,1084,40154,0.8621956715984717,2.2067972142269557e-05,1093.508505288887,41299.89761942434,3881,0.06172411808192795,0.062223285372451614,3998.6226868104964
118,249.8649633,1093,40697,0.8614594306460737,2.175182887198449e-05,1093.3808013771336,41640.50721420564,3921,0.061514172049972136,0.062247185385894466,4024.903644476581
