,x_(nm),baseline_dark,baseline_light,baseline_mirror,baseline_calibration,baseline_dark_smoothed,baseline_light_smoothed,raw_signal,calibrated_signal,calibrated_signal_smoothed,raw_signal_smoothed
0,186.23,1020,1016,0.3621226043733797,-0.09053065109334492,993.593917489588,3735.7858062109067,1026,-0.5431839065600695,,1145.990276710588
1,186.775442325,1018,1007,1.18800459154587,-0.1080004174132609,1001.0941536943748,2802.8081953891215,1018,-0.0,,1103.853516984927
2,187.3207793,1014,1007,1.908567993433533,-0.2726525704905047,1008.1259365090973,1986.6223306610327,1021,-1.9085679934335327,,1067.400268051101
3,187.86601092499998,1010,1013,1.7279185264672412,0.5759728421557471,1014.7026690986015,1283.2447396988287,1021,6.335701263713218,,1036.435194784252
4,188.41113719999998,1012,1018,1.043047789334166,0.17384129822236102,1020.8377546277335,688.691950174697,1015,0.521523894667083,,1010.762962059522
5,188.956158125,1003,1015,0.840365554154959,0.07003046284624657,1026.5445962613392,198.980489760826,1008,0.3501523142312329,,990.1882347520533
6,189.50107369999998,1005,1013,0.8202728553565946,0.10253410691957432,1031.8365971642645,-189.87311387059663,1015,1.0253410691957432,,974.515677736988
7,190.045883925,1025,1030,0.837733819880384,0.1675467639760768,1036.7271605013555,-481.8523330473822,1030,0.837733819880384,,963.5499558894682
8,190.59058879999998,1040,1042,0.8116271105193998,0.4058135552596999,1041.2296894374583,-680.9406400973426,1045,2.0290677762984997,,957.095734084636
9,191.135188325,1045,1055,0.8262856362484797,0.08262856362484797,1045.357587137419,-791.1215073482913,1061,1.3220570179975675,,954.9576771976335
10,191.67968249999998,1046,1069,0.8012221689422371,0.03483574647574944,1049.1242567660831,-816.3784071280384,1074,0.9754009013209843,,956.9404501036029
11,192.22407132499998,1045,1058,0.7775424502505143,0.059810957711578024,1052.543101488297,-760.6948117643974,1073,1.6747068159241847,,962.8487176776862
12,192.7683548,1047,1043,0.7753865851703869,-0.19384664629259674,1055.6275244689068,-628.0541935851784,1052,-0.9692332314629837,,972.4871447950256
13,193.312532925,1048,1031,0.7956261498651602,-0.04680153822736237,1058.3909288727584,-422.440024918194,1040,0.37441230581889895,,985.6603963307634
14,193.8566057,1055,1042,0.7908861747409445,-0.06083739805699573,1060.8467178646977,-147.83577809125836,1056,-0.06083739805699573,,1002.1731371600413
15,194.400573125,1057,1057,0.7942231778648126,inf,1063.0082946095708,191.7750745678204,1075,inf,,1021.8300321580018
16,194.9444352,1072,1060,0.7947581770897779,-0.06622984809081482,1064.8890622722236,592.4090607312269,1077,-0.3311492404540741,,1044.435746199787
17,195.488191925,1091,1075,0.7914877943554887,-0.04946798714721804,1066.5024240175023,1050.0827080711506,1081,0.4946798714721804,,1069.7949441605388
18,196.0318433,1098,1087,0.7911116722494277,-0.07191924293176616,1067.8617830102528,1560.8125442597798,1095,0.21575772879529848,,1097.7122909153995
19,196.575389325,1089,1086,0.7900325230816138,-0.2633441743605379,1068.980542415321,2120.6150969693026,1083,1.5800650461632275,,1127.992451339511
20,197.11883,1066,1069,0.798472358442206,0.26615745281406866,1069.872105397553,2725.5068938719073,1071,1.3307872640703433,,1160.4400903080157
21,197.662165325,1069,1060,0.7981102791346143,-0.08867891990384603,1070.549875121795,3371.5044626397794,1075,-0.5320735194230762,,1194.8598726960556
22,198.2053953,1085,1064,0.8040599544843242,-0.0382885692611583,1071.0272547528925,4054.6243309451083,1075,0.382885692611583,,1231.056463378773
23,198.74851992499998,1084,1067,0.8074165803696804,-0.047495092962922376,1071.3176474556922,4770.883026460089,1061,1.0923871381472146,,1268.8345272313097
24,199.2915392,1080,1081,0.8060625325032217,0.8060625325032217,1071.4344563950394,5516.297076856896,1066,-11.284875455045103,,1307.9987291288078
25,199.83445312499998,1094,1101,0.8122546130835153,0.11603637329764505,1071.3910847357604,6286.883009807576,1089,-0.5801818664882252,inf,1348.3537339463828
26,200.3772617,1091,2057,0.8144257223941842,0.0008430908099318677,1071.522729846635,6972.643344129971,1135,0.03709599563700218,inf,1384.500101927537
27,200.919964925,1062,6025,0.8150182986479615,0.00016421887943742928,1071.58134952092,7675.011823597215,1332,0.04433909744810591,inf,1420.9525923576705
28,201.4625628,1050,10590,0.8232603193402961,8.629563095810232e-05,1071.2738680377604,8394.75086638413,1560,0.044010771788632184,inf,1458.1410450972562
29,202.005055325,1049,12549,0.8194894939197722,7.125995599302367e-05,1070.7986590862554,9131.483159301282,1674,0.04453747249563979,inf,1496.3825681215594
30,202.5474425,1043,13417,0.8269202298982968,6.682723694022118e-05,1069.9962626559854,9881.143717864314,1722,0.04537569388241018,inf,1535.2921923486083
31,203.089724325,1051,14038,0.8298864771900701,6.390132264495804e-05,1068.1733448096015,10643.275997191127,1753,0.04485872849676054,inf,1574.1540918253793
32,203.63190079999998,1061,14669,0.8293789756785952,6.094789650783327e-05,1066.052753176722,11420.127522706978,1786,0.044187224968179124,inf,1613.2477292803603
33,204.173971925,1058,15156,0.8303112569560028,5.889567718513284e-05,1065.0296948968064,12208.686063104255,1806,0.044053966534479364,inf,1653.537271512347
34,204.71593769999998,1063,15522,0.832804584655424,5.759766129437886e-05,1064.6339214931052,13000.659380733176,1827,0.04400461322890545,inf,1694.1963351377963
35,205.257798125,1070,15844,0.8371769300637781,5.666555638715163e-05,1064.486307730619,13788.558540397025,1852,0.044312465094752576,-inf,1734.912229042527
36,205.7995532,1069,16261,0.8381556767340916,5.5170858131522616e-05,1064.6040000905818,14567.001766744155,1866,0.043971173930823525,-inf,1775.5457654759678
37,206.34120292499998,1074,16806,0.840625124319978,5.343409129926125e-05,1064.5879634872615,15338.595959138078,1902,0.044243427595788316,-inf,1815.6949647783292
38,206.88274729999998,1075,17408,0.8415937915656597,5.152720207957263e-05,1064.434120818118,16102.248046388057,1931,0.04410728498011417,-inf,1854.528030079921
39,207.424186325,1063,17810,0.8431564976534377,5.0346718675191836e-05,1064.1501732768374,16847.340166254857,1946,0.04445615259019439,-inf,1891.6670819270742
40,207.96552,1059,18139,0.844165982526256,4.942423785282529e-05,1063.8262021789646,17571.133955468642,1962,0.04463008678110124,-inf,1928.4690706470897
41,208.506748325,1054,18512,0.8476484869242688,4.855358499967171e-05,1063.4140071122586,18277.803393054983,1974,0.04466929819969798,-0.11087174435676463,1965.3877551020032
42,209.0478713,1062,18904,0.8491768105118729,4.7594261322266166e-05,1063.301841491293,18964.679675643478,1991,0.04421506876838527,-0.09426225966646239,2001.678044802788
43,209.588888925,1071,19438,0.8502736512177026,4.629355100003825e-05,1063.83519445512,19625.445514054303,2024,0.044117754103036456,-0.051297592964600965,2036.9903055561454
44,210.12980119999997,1061,19893,0.8513731200582484,4.520885301923579e-05,1064.8186142381276,20256.656843869234,2058,0.045073226460178084,-0.012904465781864122,2071.9235543273517
45,210.670608125,1051,20347,0.8534308197221572,4.422837996072539e-05,1065.895897981814,20845.92176493199,2077,0.04537831783970425,0.07259868345063193,2104.861265260781
46,211.2113097,1036,20762,0.8557212941711507,4.3380375857809524e-05,1066.3611406826676,21389.446669233323,2089,0.04567953577827343,0.16114288695753465,2135.606514303794
47,211.751905925,1044,20989,0.8575135521308375,4.299391086141075e-05,1066.9138145824163,21883.528007428966,2110,0.04583150897826386,0.19927185225820607,2164.143106299082
48,212.29239679999998,1057,21302,0.8580327959771828,4.23824547284358e-05,1068.1431516002422,22320.152755441373,2141,0.04594258092562441,0.266119665586082,2189.5516546240715
49,212.83278232499998,1064,21753,0.8587529108532552,4.150770510190223e-05,1069.3655801943216,22704.820267729294,2156,0.045326413971277235,0.36040828270168584,2212.295816439741
50,213.37306249999997,1074,22240,0.8598387128136875,4.0623580875634865e-05,1070.2669143128744,23037.909035311794,2189,0.04529529267633287,0.06230330249974169,2233.218487394915
51,213.91323732499998,1078,22778,0.8611437003932625,3.968404149277707e-05,1070.9470203175404,23310.980588461352,2225,0.0455175955922153,0.04589435210975869,2251.660128202181
52,214.45330679999998,1075,23396,0.8624756676121401,3.863965179033825e-05,1071.5945095018935,23556.12294729167,2267,0.04605846493408319,0.04589769832796496,2268.9976896418507
53,214.993270925,1079,23938,0.8630074298534857,3.775350758359883e-05,1070.857233459401,23875.174749144484,2303,0.04621029328232497,0.04611292310293366,2290.1989626038658
54,215.5331297,1075,24424,0.8629495266956824,3.695873599279123e-05,1069.3421142041516,24302.561394368604,2321,0.046050585047017874,0.04633516461899737,2317.2121678859776
55,216.07288312499998,1082,24969,0.8648478670709356,3.6205796754340676e-05,1068.6796982943918,24770.16987927199,2339,0.04551068652020623,0.04657246286159507,2347.662008199461
56,216.61253119999998,1103,25437,0.8650803831098881,3.555027464082716e-05,1068.612494054205,25245.989218328355,2374,0.045184399068491324,0.04684177722338545,2379.649595687286
57,217.152073925,1112,25715,0.8652291434094919,3.5167627663678896e-05,1069.5157761217488,25729.133434505384,2410,0.045647580707455206,0.047107825579774436,2413.2241047361877
58,217.69151129999997,1092,25979,0.8680312398394996,3.487890223166712e-05,1070.4029309836938,26223.16102289922,2417,0.04621454545695893,0.047368975176868354,2447.971867992433
59,218.230843325,1083,26397,0.868212549145114,3.4297722570321326e-05,1070.841287458359,26731.30643955644,2448,0.04681639130848861,0.047627942519839345,2483.383768601733
60,218.77006999999998,1077,26975,0.868144571802742,3.3521683983425053e-05,1071.5564338942918,27247.429500101407,2490,0.0473661394685796,0.0478748789750833,2519.321547486871
61,219.30919132499997,1065,27664,0.8681762475955156,3.2639431843133786e-05,1072.369611995721,27763.717366191224,2534,0.047947325377563535,0.04814523537242673,2556.3862828149636
62,219.84820729999998,1063,28151,0.868951283960652,3.207882767131763e-05,1073.268341298763,28283.077283743147,2576,0.048535266266703576,0.04841501839487109,2594.2654873269566
63,220.38711792499998,1064,28547,0.8691522224557424,3.162508541482889e-05,1074.5011891548868,28813.473351604243,2621,0.04924025799088859,0.04868342976855601,2633.142834492237
64,220.9259232,1064,29194,0.8692686507714266,3.0901836145447085e-05,1075.746041812931,29361.11984416352,2683,0.05003007271947883,0.04894257326686043,2673.130557883479
65,221.464623125,1068,29870,0.8701622824311823,3.0211870093437342e-05,1076.7526784298418,29919.19785272542,2725,0.050061068744825674,0.04921472058436914,2714.218940406299
66,222.0032177,1070,30298,0.86932404321908,2.974285080125496e-05,1077.6004892522842,30480.715803301868,2752,0.050027475047710844,0.049485602717416435,2755.5722666424535
67,222.54170692499997,1074,30659,0.8705973257298546,2.942698413824082e-05,1078.2201408865226,31041.788692835027,2782,0.05026128890811532,0.049753149212865166,2796.829894221786
68,223.0800908,1074,31099,0.8704844215444587,2.899198739531919e-05,1079.122811388686,31601.868989104467,2820,0.05062000999222731,0.050004247532364585,2838.339917098861
69,223.61836932499997,1071,31508,0.8703398065724872,2.859479602367143e-05,1080.1606831411602,32161.772203220295,2842,0.0506413837579221,0.05024853716746726,2880.202065731897
70,224.1565425,1063,32199,0.8697053263836744,2.79324680878621e-05,1080.7990214953697,32721.296926317067,2886,0.05092088932417261,0.05052161762569919,2922.7570046886117
71,224.69461032499999,1061,32898,0.8700422735223692,2.7328023165573677e-05,1080.8415592651947,33279.09828082113,2929,0.05104874727329163,0.050809142438472614,2965.5178599741216
72,225.23257279999999,1059,33623,0.8700397124616915,2.671783910028533e-05,1079.9823099050734,33831.08634397091,2983,0.05140512242894898,0.051118309217889325,3008.1984416407495
73,225.77042992499997,1051,34543,0.8700678242154535,2.5978377648855053e-05,1079.2114204172028,34370.871186209675,3063,0.052268495829496366,0.05142605507171046,3050.474461482648
74,226.30818169999998,1050,35171,0.8699872642519537,2.5497120959290574e-05,1078.5545765475797,34898.890597747864,3109,0.05249857205517929,0.05172593277636725,3092.199370314104
75,226.84582812499997,1057,35645,0.8700242014773532,2.5153932042250292e-05,1077.7467213300208,35422.63016149789,3136,0.052295024715838356,0.052000454754579276,3133.2750458673427
76,227.3833692,1083,36255,0.8696880407569096,2.472671559072301e-05,1077.0537951029262,35938.050533420224,3199,0.05232173018996989,0.05227369401847868,3174.400552673839
77,227.92080492499997,1090,36637,0.87010037851645,2.4477463035318028e-05,1076.5574758204964,36439.3765883705,3239,0.05260206806289844,0.05255094206772796,3215.364583569215
78,228.45813529999998,1117,36857,0.8693067287349536,2.4323075790009896e-05,1076.179800221955,36930.57394278395,3277,0.052537843706421374,0.052822829549871615,3255.6406713628216
79,228.99536032499998,1141,37157,0.8691277262341458,2.413171163466642e-05,1076.227955333056,37406.76235022239,3314,0.05243820938213013,0.053077359603669064,3294.9458651384443
80,229.53248,1119,37672,0.86926662631248,2.3780992704086667e-05,1076.3247865183603,37856.98450700962,3344,0.052912708766592834,0.053326050941871615,3332.932682506901
81,230.069494325,1095,38384,0.8686441253792921,2.3294916071208457e-05,1076.4146413282087,38290.486398332185,3382,0.05327547305485374,0.05355637676838905,3369.829282656394
82,230.60640329999998,1067,38959,0.868302707705708,2.291519866213734e-05,1077.104373824981,38699.10756755459,3402,0.053506988876090684,0.053756961476822525,3405.0154023873047
83,231.143206925,1074,39460,0.8687016218294412,2.263068884044811e-05,1077.9862058030553,39061.84593082441,3437,0.053476317729978885,0.053964298397071425,3438.0089016738116
84,231.67990519999998,1085,39699,0.8683284847277679,2.2487400547153053e-05,1078.0136356429157,39381.10729574774,3476,0.05376737470824295,0.05417817147574372,3467.914992411992
85,232.216498125,1080,39970,0.8683608504247778,2.232864104975001e-05,1077.8133366553961,39671.71337969074,3520,0.05448188416139002,0.05439166516141326,3495.9183899974414
86,232.75298569999998,1084,40411,0.868249886800152,2.207770454904142e-05,1078.1224263290017,39938.5463090889,3546,0.05435530859973998,0.05458431995584902,3522.1992344106775
87,233.289367925,1081,40815,0.867778574191436,2.1839698348805455e-05,1078.5698430315315,40175.581100363896,3567,0.05429349009513036,0.05477309211946936,3546.6550544745514
88,233.8256448,1075,41045,0.8676471171202086,2.1707458521896637e-05,1078.9561937982533,40368.85705225409,3601,0.05483304022631091,0.05497250354362635,3568.6543523068926
89,234.36181632499998,1076,41073,0.8677489292852631,2.1695350383410333e-05,1078.962309452062,40511.6070805673,3623,0.05525805742654612,0.05519465961590507,3587.877211261794
90,234.89788249999998,1071,41049,0.8672589311593729,2.1693404651542672e-05,1078.7953521030847,40626.357675144754,3625,0.055404955480039986,0.05545123275919614,3606.596955763369
91,235.433843325,1069,41083,0.8668004592010585,2.1662429629656084e-05,1078.5383813902713,40723.01789394926,3649,0.0558890684445127,0.05572078186324522,3624.787175247388
92,235.9696988,1067,41200,0.8665578153052318,2.1592151478963243e-05,1077.821853269589,40784.12833812692,3676,0.0563339232086151,0.05599803023245842,3640.7995877595627
93,236.505448925,1060,41274,0.8666098942893835,2.154995509746316e-05,1076.8125212348882,40801.78853428085,3690,0.056676381906328115,0.05628101973289661,3653.9006546013934
94,237.04109369999998,1060,41401,0.8664654382940954,2.1478531476515094e-05,1075.9443248997504,40784.25418469197,3712,0.05696106547571803,0.056570451456667156,3665.1855308160298
95,237.576633125,1059,41396,0.8658853313998153,2.1466279877031392e-05,1075.3760900586444,40728.06403315965,3720,0.057121770752780535,0.05685074648564594,3673.958753312575
96,238.11206719999998,1063,41355,0.8659634438688039,2.1492193087183656e-05,1074.7289859339755,40634.617386576494,3723,0.057169233611908524,0.05713216807219798,3680.200366939158
97,238.64739592499998,1071,41331,0.8653764850454776,2.1494696598248327e-05,1074.0069084237261,40516.83315590309,3719,0.05691795659216157,0.057418770230508016,3684.865750073544
98,239.1826193,1068,41228,0.865240351462597,2.1544829468690164e-05,1073.2901311467776,40392.691159481896,3726,0.057266156727778454,0.05770271773369173,3689.067090987268
99,239.71773732499997,1071,41068,0.8654717432609225,2.163841646275777e-05,1072.5754377222381,40279.67641396103,3743,0.05781784878848876,0.05798991909123068,3694.109334299688
100,240.25275,1080,40660,0.8654328986505,2.1865409263529562e-05,1071.5566377494188,40167.75134204548,3741,0.058183854050252164,0.05828723605262733,3699.397313642367
101,240.787657325,1086,40296,0.8649750843904328,2.20600633611434e-05,1070.2199823325352,40051.737253391155,3724,0.05819444714669629,0.05859032414918868,3704.530476341409
102,241.3224593,1085,40084,0.8650023747478218,2.218011679140034e-05,1069.704115608487,39948.152868693884,3709,0.058200626460634494,0.05889083866391272,3711.231805929848
103,241.85715592499997,1079,39744,0.864426750181391,2.235682788520344e-05,1069.3279122969736,39848.60250515224,3713,0.05888788464962586,0.05920316288828959,3719.0052096309505
104,242.3917472,1068,39416,0.8640504083213235,2.2531824562462802e-05,1069.3933044915875,39743.5107023934,3718,0.05970933509052642,0.05950772649164458,3726.729370993609
105,242.92623312499998,1060,39346,0.8638615542876957,2.2563379676322826e-05,1070.3805748714374,39645.560624248945,3711,0.05981551952193181,0.05978799577754041,3734.8786155971106
106,243.46061369999998,1065,38964,0.8647030136247108,2.281598495012298e-05,1071.5871480667533,39573.48173231481,3686,0.05980069655427233,0.06005547283338663,3744.348433713036
107,243.994888925,1067,38711,0.863747888775786,2.294516759047354e-05,1072.0854605993134,39526.78334730042,3692,0.06023106492499304,0.06031746982694419,3754.618700310241
108,244.52905879999997,1075,38949,0.8628771528607923,2.2782836586069394e-05,1071.7494620489501,39497.503567463966,3715,0.0601466885872232,0.060567890824898524,3764.8145597861057
109,245.063123325,1091,39079,0.8633129275796555,2.2725937864053268e-05,1071.7443430202065,39491.09436227245,3738,0.060155557526149,0.06081044542862549,3776.6273301772817
110,245.59708249999997,1096,38814,0.8623491049005171,2.2863065509849862e-05,1072.0488799293096,39515.40107363625,3741,0.060472808273552885,0.06105170958502946,3790.9821287004643
111,246.130936325,1076,38488,0.862505803534046,2.3054255413611837e-05,1071.9472921243764,39585.41414301494,3747,0.061577916209757215,0.061291850446932916,3808.113524655072
112,246.66468479999997,1057,38480,0.8631762817630669,2.306539512500513e-05,1071.9489003148224,39705.663661690334,3759,0.06232269762776386,0.061510877721625654,3827.913180366413
113,247.19832792499997,1051,38806,0.8629529675416884,2.285665388800658e-05,1072.0561960633104,39875.48515255083,3794,0.06269580161480205,0.06171542189179221,3850.8024190807655
114,247.7318657,1059,39361,0.8621360146885437,2.250890331284381e-05,1072.0809531359507,40089.90545652147,3851,0.06284485804945993,0.061922081408593434,3876.9783007541896
115,248.265298125,1060,39490,0.8624878814902607,2.244308825111269e-05,1072.2589413123535,40341.60490611261,3855,0.06272843166185997,0.06211843774820153,3905.5055833653473
116,248.79862519999998,1063,39363,0.862427427307537,2.251768739706363e-05,1072.487847969356,40623.86090285093,3840,0.0625316179016457,0.06229015150323995,3935.0706924278393
117,249.33184692499998,1079,39628,0.8621956715984717,2.236622666213058e-05,1072.52707875601,40924.85306575383,3865,0.06231230748069579,0.06245555598487616,3965.6563455570144
118,249.8649633,1095,40179,0.8614594306460737,2.2041229931585142e-05,1072.4592629504425,41260.05230016456,3923,0.062332598246522784,0.06261100579769308,3998.097533352887
119,250.397974325,1094,40633,0.861591555373828,2.1790929345047373e-05,1071.7079435547598,41641.51607057837,3959,0.06243101257356072,0.06275296400096914,4032.424766132791
