,x_(nm),baseline_dark,baseline_light,baseline_mirror,baseline_calibration,baseline_dark_smoothed,baseline_light_smoothed,raw_signal,calibrated_signal,calibrated_signal_smoothed,raw_signal_smoothed
0,186.23,1311,1308,0.3621226043733797,-0.12070753479112656,1290.6224328144406,4196.986637196428,1298,1.5691979522846453,,1526.5285232299655
1,186.775442325,1305,1295,1.18800459154587,-0.118800459154587,1296.1387024863152,3202.644730293365,1283,2.613610101400914,,1445.5570708076807
2,187.3207793,1308,1293,1.908567993433533,-0.12723786622890218,1301.315660468347,2332.6567709102865,1285,2.92647092326475,,1375.1314258714285
3,187.86601092499998,1306,1294,1.7279185264672412,-0.14399321053893677,1306.1639157162615,1582.7734579495573,1285,3.023857421317672,,1314.880824940845
4,188.41113719999998,1297,1295,1.043047789334166,-0.521523894667083,1310.6940771857842,948.7454903135413,1290,3.6506672626695815,,1264.4345045355665
5,188.956158125,1291,1286,0.840365554154959,-0.1680731108309918,1314.9167538326403,426.3235669046021,1299,-1.3445848866479344,,1223.4217011752287
6,189.50107369999998,1303,1285,0.8202728553565946,-0.04557071418647748,1318.8425546125557,11.258386625103412,1293,0.4557071418647748,,1191.4716513794679
7,190.045883925,1322,1300,0.837733819880384,-0.03807880999456291,1322.4820884812557,-300.699351622593,1302,0.7615761998912582,,1168.21359166792
8,190.59058879999998,1330,1320,0.8116271105193998,-0.08116271105193998,1325.8459643944657,-513.7989489361198,1312,1.4609287989349196,,1153.2767585602212
9,191.135188325,1336,1330,0.8262856362484797,-0.13771427270807995,1328.9447913079114,-632.2897064131148,1317,2.6165711814535193,,1146.2903885760077
10,191.67968249999998,1334,1326,0.8012221689422371,-0.10015277111777963,1331.789178177318,-660.4209251512166,1324,1.0015277111777963,,1146.8837182349152
11,192.22407132499998,1331,1320,0.7775424502505143,-0.07068567729550129,1334.3897339584114,-602.4419062480583,1313,1.2723421913190234,,1154.6859840565803
12,192.7683548,1322,1324,0.7753865851703869,0.38769329258519347,1336.7570676069167,-462.6019508012787,1299,-8.91694572945945,,1169.3264225606385
13,193.312532925,1319,1319,0.7956261498651602,inf,1338.9017880785595,-245.15035990851175,1304,-inf,,1190.4342702667263
14,193.8566057,1330,1316,0.7908861747409445,-0.05649186962435317,1340.8345043290656,45.663565332605685,1323,0.39544308737047223,,1217.6387636944798
15,194.400573125,1345,1329,0.7942231778648126,-0.049638948616550785,1342.5658253141603,405.5905238244368,1332,0.6453063320151602,,1250.5691393635348
16,194.9444352,1363,1340,0.7947581770897779,-0.03455470335172948,1344.1063599895688,830.3812144693447,1337,0.8984222871449664,,1288.8546337935277
17,195.488191925,1360,1348,0.7914877943554887,-0.06595731619629072,1345.466717311017,1315.7863361696955,1343,1.1212743753369423,,1332.124483504094
18,196.0318433,1352,1349,0.7911116722494277,-0.2637038907498092,1346.6575062342301,1857.5565878278467,1344,2.1096311259984737,,1380.0079250148706
19,196.575389325,1352,1338,0.7900325230816138,-0.056430894505829554,1347.6893357149338,2451.4426683461697,1337,0.8464634175874433,,1432.1341948454926
20,197.11883,1349,1342,0.798472358442206,-0.114067479777458,1348.5728147088537,3093.195276627025,1334,1.71101219666187,,1488.132529515597
21,197.662165325,1353,1360,0.7981102791346143,0.11401575416208776,1349.3185521717148,3778.565111572776,1336,-1.9382678207554918,,1547.6321655448191
22,198.2053953,1361,1363,0.8040599544843242,0.4020299772421621,1349.9371570592432,4503.302872085786,1342,-7.63856956760108,,1610.262339452796
23,198.74851992499998,1345,1343,0.8074165803696804,-0.4037082901848402,1350.439238327164,5263.159257068418,1341,1.614833160739361,,1675.6522877591624
24,199.2915392,1354,1350,0.8060625325032217,-0.20151563312580542,1350.8354049312027,6053.884965423043,1348,1.2090937987548325,,1743.4312469835554
25,199.83445312499998,1377,1378,0.8122546130835153,0.8122546130835153,1351.1362658270598,6871.230696051874,1367,-8.122546130835154,-inf,1813.2284536455745
26,200.3772617,1364,2382,0.8144257223941842,0.000800025267577784,1352.259620829438,7598.9039615844895,1449,0.06800214774411165,-inf,1875.580783256663
27,200.919964925,1341,6555,0.8150182986479615,0.00015631344431299606,1352.8130874991248,8344.349928650545,1800,0.07174787093966518,-inf,1938.4133955468606
28,201.4625628,1340,11415,0.8232603193402961,8.171318306107157e-05,1352.9600670456603,9106.922376497596,2189,0.06937449241884977,-inf,2001.964076196478
29,202.005055325,1348,13482,0.8194894939197722,6.753663210151411e-05,1353.3942105143685,9884.170015175692,2364,0.06861721821513835,-inf,2066.762033115093
30,202.5474425,1345,14400,0.8269202298982968,6.334126617374928e-05,1353.858343337309,10675.055040884075,2455,0.0703088054528617,-inf,2132.5149154000815
31,203.089724325,1344,15061,0.8298864771900701,6.050058155500985e-05,1353.51131395952,11481.199392964514,2516,0.07090668158247154,-inf,2198.8792045119512
32,203.63190079999998,1344,15726,0.8293789756785952,5.7667847008663276e-05,1352.7651588937201,12302.998165303621,2562,0.07023943765655187,-inf,2265.712722824936
33,204.173971925,1346,16237,0.8303112569560028,5.57592678098182e-05,1352.6441595505864,13135.858592493347,2608,0.07036819597599056,inf,2333.9658882420445
34,204.71593769999998,1361,16627,0.832804584655424,5.455290086829713e-05,1352.9106208520884,13969.792248974794,2639,0.06971860730968374,inf,2402.984574962014
35,205.257798125,1364,16972,0.8371769300637781,5.363768132135944e-05,1353.467190649819,14799.392217263983,2663,0.06967534803644591,inf,2471.4502933248295
36,205.7995532,1360,17432,0.8381556767340916,5.215005455040391e-05,1353.9659335432025,15622.370721873358,2692,0.069463872661138,inf,2538.460508731746
37,206.34120292499998,1359,18075,0.840625124319978,5.028865304618198e-05,1354.1774672132747,16440.05551654593,2737,0.06929776389763877,inf,2604.194794899042
38,206.88274729999998,1353,18735,0.8415937915656597,4.8417546402350693e-05,1354.0044621621971,17247.60558563015,2788,0.06947917908737325,inf,2668.3051484744333
39,207.424186325,1345,19108,0.8431564976534377,4.746700994502267e-05,1353.359555142786,18034.87576162506,2806,0.06934930152967812,-0.2208525342350096,2730.385693900149
40,207.96552,1340,19414,0.844165982526256,4.67060961893469e-05,1352.839792520756,18801.952818863032,2828,0.0694986711297482,-0.1898443562351626,2791.4573376519884
41,208.506748325,1335,19785,0.8476484869242688,4.594300742136958e-05,1352.9055244739145,19551.099232145316,2875,0.07075223142890916,-0.14696866435549494,2851.306575460318
42,209.0478713,1348,20244,0.8491768105118729,4.493950097967151e-05,1353.5559129311841,20279.96382703986,2924,0.0708246535439623,-0.09056353101579617,2909.054746426817
43,209.588888925,1355,20828,0.8502736512177026,4.3664235157279446e-05,1353.7437541053898,20980.07141724574,2963,0.07021209013290534,-0.019950495409827528,2963.8717524745175
44,210.12980119999997,1347,21280,0.8513731200582484,4.271174033302806e-05,1353.4997395184228,21646.788285124956,2977,0.06962013674283574,0.09121720148489465,3015.7977304128617
45,210.670608125,1344,21723,0.8534308197221572,4.187795376231205e-05,1353.6673763844901,22269.666719517565,3000,0.06934989143038875,0.1761249390646354,3064.082108314965
46,211.2113097,1345,22157,0.8557212941711507,4.111672564727805e-05,1353.9100998889862,22846.34585154773,3042,0.06977508342343085,0.29660749987974283,3108.037418741022
47,211.751905925,1355,22389,0.8575135521308375,4.076797338265843e-05,1354.2605721533637,23372.75942829917,3069,0.06987630637787655,0.3117312752861463,3147.5323110375616
48,212.29239679999998,1372,22697,0.8580327959771828,4.023600450068853e-05,1354.884935106092,23836.889465219592,3086,0.06896451171418014,0.1334873436229482,3181.935785634947
49,212.83278232499998,1369,23177,0.8587529108532552,3.937788476032902e-05,1355.1683616842702,24242.56667195133,3111,0.06859627525249315,0.2118937641968122,3211.2734376768967
50,213.37306249999997,1360,23679,0.8598387128136875,3.8524965850337716e-05,1355.3557951482221,24591.706743074115,3146,0.06880558900870316,0.2876817657234043,3236.1199800674367
51,213.91323732499998,1351,24236,0.8611437003932625,3.762917633354872e-05,1355.5729008584308,24877.833473011367,3185,0.06901190939572836,0.06945024885549943,3255.932116242662
52,214.45330679999998,1360,24866,0.8624756676121401,3.66917241390343e-05,1355.6433667806486,25135.77548755303,3241,0.06901713310552351,0.06936471258965501,3272.8132007519366
53,214.993270925,1374,25467,0.8630074298534857,3.581984102658389e-05,1354.482570386619,25470.744614826574,3301,0.06902483365822716,0.06938042972462277,3295.2049423542367
54,215.5331297,1359,26088,0.8629495266956824,3.489625648815894e-05,1352.8922512400927,25921.041767649956,3335,0.06895500282060206,0.06931472372809314,3325.7224852204395
55,216.07288312499998,1341,26672,0.8648478670709356,3.414187624140127e-05,1352.3915150965788,26414.542028131502,3376,0.06947871815125159,0.06921170533931731,3360.3232009784406
56,216.61253119999998,1352,27094,0.8650803831098881,3.360579531931816e-05,1352.330675666467,26913.921289269914,3427,0.06973202528758518,0.06917146176899266,3397.1051439443054
57,217.152073925,1370,27381,0.8652291434094919,3.326397075889015e-05,1352.3553874379681,27420.061111236417,3460,0.06952169888608042,0.06915593482369445,3435.0464563183104
58,217.69151129999997,1364,27700,0.8680312398394996,3.295987393072219e-05,1352.0490158327223,27939.397064485634,3463,0.06918277538058587,0.06911219984014388,3473.151826768377
59,218.230843325,1356,28248,0.868212549145114,3.228516098263848e-05,1351.730820630113,28471.50336360905,3476,0.06844454128319358,0.06905776376181005,3511.6713175835703
60,218.77006999999998,1349,28881,0.868144571802742,3.1532201503804374e-05,1351.9627171623106,29011.714444267713,3519,0.0684248772632555,0.06897749438647376,3550.6868785249267
61,219.30919132499997,1345,29488,0.8681762475955156,3.0848745606208136e-05,1352.147704364739,29553.83820698034,3590,0.06925543388593726,0.06889788252789379,3589.8177761670017
62,219.84820729999998,1347,29934,0.868951283960652,3.039672872146962e-05,1352.2386237513613,30098.723980157527,3630,0.06939573167111514,0.06881143725204515,3629.016036603252
63,220.38711792499998,1345,30426,0.8691522224557424,2.9887288004392643e-05,1352.2826338082145,30654.820698089967,3666,0.06936839545819533,0.06872136428856215,3669.115676459193
64,220.9259232,1351,31148,0.8692686507714266,2.917302583385665e-05,1352.0904663752035,31229.209834876747,3725,0.06925676332957569,0.0686348423883054,3710.6391537746463
65,221.464623125,1352,31771,0.8701622824311823,2.8605880615114973e-05,1351.99823325554,31813.7094158412,3756,0.06876853699873639,0.06853844157599094,3752.7244784705617
66,222.0032177,1343,32204,0.86932404321908,2.816901731049156e-05,1351.8423520351275,32399.20804548172,3773,0.06845071206449449,0.06842620102097428,3794.0174182879973
67,222.54170692499997,1339,32557,0.8705973257298546,2.788767139886779e-05,1351.356066955058,32981.21413848495,3803,0.06871522232681024,0.06834368139639167,3835.040589820761
68,223.0800908,1352,33038,0.8704844215444587,2.7472209226297377e-05,1350.7362114656923,33562.88926136428,3852,0.06868052306574345,0.06827017845132324,3876.1843982875425
69,223.61836932499997,1360,33521,0.8703398065724872,2.706196345177349e-05,1349.7678996126494,34145.90294230835,3884,0.06830439575227629,0.06818749650355818,3917.0683367685947
70,224.1565425,1346,34213,0.8697053263836744,2.646135413587107e-05,1348.6616910915052,34727.97519762555,3920,0.06811152554573213,0.06809403901473977,3957.6183832022616
71,224.69461032499999,1338,34880,0.8700422735223692,2.5938890749578713e-05,1347.5616888264478,35307.83956601441,3971,0.06829709934364075,0.06799415937727847,3997.898321592712
72,225.23257279999999,1335,35577,0.8700397124616915,2.540855418672074e-05,1346.1449862963796,35881.109062492236,4021,0.06824737654553191,0.06791562882052526,4037.9947450677623
73,225.77042992499997,1331,36571,0.8700678242154535,2.46897793477711e-05,1344.8650026047897,36441.79469523588,4088,0.06806972166180492,0.0678417931549108,4077.2849215156975
74,226.30818169999998,1322,37310,0.8699872642519537,2.417437101956079e-05,1344.273754784907,36991.10999116557,4138,0.06807502879108318,0.0677449587688819,4115.907064712599
75,226.84582812499997,1329,37860,0.8700242014773532,2.3816052160558242e-05,1343.5354368162102,37536.17058143941,4163,0.06749469182302206,0.06764043354196246,4154.056694375784
76,227.3833692,1352,38489,0.8696880407569096,2.3418370917330685e-05,1342.2350902624946,38071.76656322834,4206,0.06683603059806177,0.06755008441853655,4191.544383791172
77,227.92080492499997,1348,38825,0.87010037851645,2.3216916469206446e-05,1340.8036422115758,38593.15968651538,4236,0.06705045476306822,0.0674720170324693,4228.312577861252
78,228.45813529999998,1369,39048,0.8693067287349536,2.3071385353511335e-05,1339.9539060907123,39103.785680309105,4277,0.06709158860801095,0.06737875293091043,4264.0125484155105
79,228.99536032499998,1386,39346,0.8691277262341458,2.2895883199002787e-05,1339.804978595186,39598.24512446412,4330,0.06740548013786421,0.06728990584316612,4299.340483363074
80,229.53248,1360,39834,0.86926662631248,2.2593611953851432e-05,1339.1791433554295,40070.728261115,4352,0.06760008696592348,0.0672280707428298,4333.930915762448
81,230.069494325,1341,40655,0.8686441253792921,2.2095032949567385e-05,1338.0591179867918,40530.32696097229,4369,0.06690375977129004,0.06719305478215366,4368.122426328939
82,230.60640329999998,1333,41284,0.868302707705708,2.1734192077938176e-05,1337.760832634915,40965.11150875366,4395,0.06655009614264669,0.06715856765006345,4400.930236245357
83,231.143206925,1340,41733,0.8687016218294412,2.1506241720828887e-05,1338.0782124170169,41355.47117714931,4443,0.06673386805973204,0.06714167839728415,4431.621758137132
84,231.67990519999998,1339,42031,0.8683284847277679,2.1339046611809888e-05,1338.1186663344326,41702.81931640501,4486,0.06715397968736572,0.06715093507191734,4459.935581779796
85,232.216498125,1333,42313,0.8683608504247778,2.1189869458876962e-05,1337.7143310153992,42023.05723798873,4511,0.06734140514031099,0.06716271260991605,4486.141407506313
86,232.75298569999998,1337,42700,0.868249886800152,2.099097954210652e-05,1336.9887426668524,42322.89458424798,4538,0.06719212551428297,0.06719327869172019,4511.497338557979
87,233.289367925,1336,43135,0.867778574191436,2.0760749639738655e-05,1336.195678271283,42594.615846337714,4568,0.06709874283563533,0.06726460286176224,4536.262248295457
88,233.8256448,1336,43451,0.8676471171202086,2.0601854852670274e-05,1335.721194138007,42824.931255520256,4583,0.06689422270662038,0.06735847183781395,4558.93723527138
89,234.36181632499998,1337,43514,0.8677489292852631,2.057398414503789e-05,1335.2716482819287,43005.898298941385,4583,0.066783152534793,0.06747382664199632,4578.568959659247
90,234.89788249999998,1322,43481,0.8672589311593729,2.05711456903478e-05,1334.7885342816116,43159.655190377205,4571,0.06683565234794,0.06761685529601522,4597.410903984147
91,235.433843325,1312,43575,0.8668004592010585,2.0509676530323417e-05,1334.38073342542,43295.68076287036,4601,0.06745632610823372,0.06776210384336322,4615.168814695601
92,235.9696988,1309,43798,0.8665578153052318,2.0394874327596127e-05,1333.7925660830117,43398.44141430073,4638,0.06789453663656751,0.06790619596113522,4630.232145688376
93,236.505448925,1319,43934,0.8666098942893835,2.0335794773891435e-05,1332.9436906837952,43459.06500713409,4666,0.06806390510821464,0.06808111005656749,4642.890620399014
94,237.04109369999998,1335,44087,0.8664654382940954,2.026724921159467e-05,1332.3163152053019,43485.817051348015,4698,0.06815875909859287,0.06827285788623216,4653.901062311627
95,237.576633125,1330,44127,0.8658853313998153,2.0232383844657694e-05,1332.2488165077098,43478.58354662536,4703,0.0682438307080304,0.0684535728956322,4662.3310154249475
96,238.11206719999998,1323,44116,0.8659634438688039,2.023610038718491e-05,1332.0221975582433,43436.86443633974,4706,0.06845872760984656,0.0686406931393163,4668.233119662869
97,238.64739592499998,1331,44162,0.8653764850454776,2.0204442694438086e-05,1331.4617318625305,43370.44666923289,4720,0.06847285629145067,0.06885933318687432,4673.154499535573
98,239.1826193,1335,44104,0.865240351462597,2.023054902996556e-05,1331.115449953541,43294.70971029839,4737,0.06882432779994282,0.06909643359613421,4678.602618405764
99,239.71773732499997,1330,43946,0.8654717432609225,2.0308610457596266e-05,1330.721126186298,43229.66656096318,4732,0.0690898927767425,0.06934029287952206,4685.457450904801
100,240.25275,1335,43582,0.8654328986505,2.0485073464399838e-05,1329.835624815939,43168.22439919281,4718,0.06930100353006464,0.06959556052573285,4692.683480939456
101,240.787657325,1349,43292,0.8649750843904328,2.062263272513728e-05,1329.062470271102,43104.51835828588,4712,0.06935391385463667,0.06985069187168154,4699.995107476863
102,241.3224593,1348,43126,0.8650023747478218,2.070473394484709e-05,1329.4219121610654,43052.29035765168,4706,0.06952649658679654,0.07009094395217456,4708.719653899205
103,241.85715592499997,1340,42844,0.864426750181391,2.0827552770368906e-05,1330.0371695847896,43002.10414731848,4728,0.07056374878600985,0.07033212014718843,4717.886815103309
104,242.3917472,1334,42652,0.8640504083213235,2.0912203115381274e-05,1330.8553761126839,42945.481369905625,4733,0.07108057838918096,0.07057414903253653,4727.001970599471
105,242.92623312499998,1339,42645,0.8638615542876957,2.0913706345027252e-05,1332.2622029943798,42892.02831321126,4722,0.0707510685652272,0.07082127674368117,4737.32073206632
106,243.46061369999998,1339,42244,0.8647030136247108,2.1139298707363666e-05,1333.3485696165003,42858.21069559818,4700,0.07104918295544928,0.07107232435497338,4749.159641214886
107,243.994888925,1321,42001,0.863747888775786,2.1232740628706638e-05,1333.6994042899923,42848.025345986636,4720,0.07217008539697387,0.07129297520065395,4760.873383315499
108,244.52905879999997,1318,42242,0.8628771528607923,2.1084868362349532e-05,1333.9340415411189,42854.78599741701,4750,0.0723632682195836,0.0714723612691403,4771.867222360551
109,245.063123325,1323,42457,0.8633129275796555,2.098781853405104e-05,1334.4482774241515,42879.92851480133,4756,0.07205118102739722,0.07163879878262724,4783.949375976714
110,245.59708249999997,1332,42344,0.8623491049005171,2.1026750826599948e-05,1334.7204919703474,42929.7070148806,4755,0.07197456807945161,0.07181239071715381,4798.30730027851
111,246.130936325,1338,42057,0.862505803534046,2.1181900428155064e-05,1334.954019343561,43017.46612607225,4735,0.07195491575444275,0.07197660621744016,4815.270447801669
112,246.66468479999997,1338,41991,0.8631762817630669,2.123278187988751e-05,1335.4198736097958,43147.38594305565,4734,0.07210652726409798,0.07212016688134482,4834.842533239619
113,247.19832792499997,1330,42239,0.8629529675416884,2.1094452749802938e-05,1335.8556705700894,43321.905048811146,4757,0.07229068957357467,0.07223379960641116,4856.4866021879525
114,247.7318657,1327,42887,0.8621360146885437,2.074436993957035e-05,1336.2139119798605,43538.081496748804,4815,0.07235636234922138,0.0723002167880811,4878.846859498423
115,248.265298125,1335,43125,0.8624878814902607,2.0638618843988052e-05,1336.7623049219433,43787.719382091615,4827,0.07207005700320628,0.07231877254727809,4901.492378083214
116,248.79862519999998,1336,42993,0.862427427307537,2.070306136561771e-05,1337.231511472488,44060.60907381736,4822,0.07217087192054335,0.07231229910978705,4924.747332895327
117,249.33184692499998,1335,43224,0.8621956715984717,2.0582865945677188e-05,1337.3763618654755,44348.11026297226,4857,0.07249285386067505,0.07229590439927652,4948.535165009304
118,249.8649633,1341,43741,0.8614594306460737,2.031743940203004e-05,1337.0429681306227,44668.257038663665,4899,0.07228944939242288,0.07226592554154411,4973.786314525714
119,250.397974325,1350,44197,0.861591555373828,2.0108561985059117e-05,1336.5336700717764,45027.958594757794,4942,0.07222995465033234,0.07221215103521904,5000.630908967264
