,x_(nm),baseline_dark,baseline_light,baseline_dark_smoothed,baseline_light_smoothed,raw_signal,calibrated_signal,calibrated_signal_smoothed,raw_signal_smoothed
0,186.23,1305,1297,1293.855260536725,4487.912714900529,1298,0.875,,1288.8797790362707
1,186.775442325,1297,1296,1297.0909815304926,3387.202622600425,1279,18.0,,1290.8304795874155
2,187.3207793,1299,1300,1300.2542485789668,2425.833157504275,1279,-20.0,,1292.8908754922702
3,187.86601092499998,1297,1299,1303.3426274718884,1598.871275425205,1297,0.0,,1295.0536821663027
4,188.41113719999998,1306,1299,1306.3536839989986,901.383932176343,1300,0.8571428571428571,,1297.311615024981
5,188.956158125,1313,1299,1309.2849839500386,328.43808357081434,1293,1.4285714285714286,,1299.657389483773
6,189.50107369999998,1303,1308,1312.1340931147497,-124.89931457825332,1292,-2.2,,1302.0837209581464
7,190.045883925,1311,1318,1314.8985772828728,-463.56130645773374,1306,-0.7142857142857143,,1304.5833248635693
8,190.59058879999998,1327,1330,1317.576002244149,-692.4809362544993,1320,-2.3333333333333335,,1307.1489166155097
9,191.135188325,1328,1338,1320.1639337883198,-816.5912481554251,1328,0.0,,1309.7732116294353
10,191.67968249999998,1333,1344,1322.659937705126,-840.8252863473817,1335,0.18181818181818182,,1312.4489253208142
11,192.22407132499998,1334,1343,1325.0615797843088,-770.1160950172443,1323,-1.2222222222222223,,1315.1687731051143
12,192.7683548,1324,1335,1327.3664258156098,-609.3967183518871,1323,-0.09090909090909091,,1317.9254703978033
13,193.312532925,1312,1333,1329.5720415887695,-363.6002005381815,1320,0.38095238095238093,,1320.7117326143493
14,193.8566057,1307,1338,1331.6759928935294,-37.659585762999995,1311,0.12903225806451613,,1323.5202751702202
15,194.400573125,1313,1330,1333.6758455196307,363.49208178678145,1319,0.35294117647058826,,1326.343813480884
16,194.9444352,1323,1333,1335.5691652568144,834.9217579242904,1328,0.5,,1329.1750629618084
17,195.488191925,1335,1349,1337.3535178948216,1371.6963984626555,1334,-0.07142857142857142,,1332.0067390284614
18,196.0318433,1348,1364,1339.0264692233936,1968.8829592150023,1343,-0.3125,,1334.831557096311
19,196.575389325,1344,1361,1340.5855850322714,2621.5483959944527,1341,-0.17647058823529413,,1337.642232580825
20,197.11883,1340,1351,1342.0284311111964,3324.7596646141465,1332,-0.7272727272727273,,1340.4314808974714
21,197.662165325,1351,1351,1343.3525732499097,4073.5837208871926,1334,-inf,,1343.192017461718
22,198.2053953,1358,1354,1344.5555772381522,4863.0875206267365,1334,6.0,,1345.9165576890327
23,198.74851992499998,1348,1346,1345.6350088656652,5688.33801964589,1326,11.0,,1348.5978169948837
24,199.2915392,1344,1343,1346.58843392219,6544.402173757786,1327,17.0,,1351.2285107947387
25,199.83445312499998,1368,1367,1347.4134181974418,7426.3469387753685,1352,16.0,-inf,1353.8013545040399
26,200.3772617,1373,2483,1348.1972185100196,8198.811728464814,1360,-0.011711711711711712,-inf,1356.3789440304163
27,200.919964925,1353,7061,1348.3256245894327,8985.32879566904,1358,0.0008759635599159075,-inf,1358.047294389428
28,201.4625628,1352,12461,1347.7891911481317,9787.349135880579,1368,0.0014402736519938788,-inf,1359.4394437019828
29,202.005055325,1349,14706,1347.2334820720484,10604.425037939502,1372,0.0017219435501983978,-inf,1361.454846089353
30,202.5474425,1348,15691,1347.0642823166747,11433.136469681993,1378,0.002091612633340305,-inf,1363.6708645722176
31,203.089724325,1340,16395,1346.8579129764855,12270.753833608682,1378,0.002524078379275988,-inf,1365.4175859022591
32,203.63190079999998,1345,17097,1345.795578608776,13117.529185258758,1375,0.001904520060944642,-inf,1366.6273528278975
33,204.173971925,1351,17594,1344.9575075312887,13971.741149289635,1371,0.0012312996367666073,-inf,1368.5082561326155
34,204.71593769999998,1352,17916,1345.0756529026448,14823.62135042668,1375,0.001388553489495291,-inf,1370.952977417356
35,205.257798125,1359,18182,1345.0804321728433,15664.981426532579,1374,0.00089163645009808,-inf,1373.230333642865
36,205.7995532,1348,18569,1344.9789576207581,16490.38793630628,1382,0.0019743336623889436,-inf,1375.5981335930337
37,206.34120292499998,1340,19153,1344.9437133343645,17303.072549774293,1387,0.002638522427440633,-inf,1377.5207592470686
38,206.88274729999998,1340,19759,1344.3666447710903,18101.460757887715,1383,0.002334545849394647,-inf,1378.9977802441467
39,207.424186325,1335,20057,1343.022786473054,18874.06478062887,1376,0.002189936972545668,-inf,1380.0997984099035
40,207.96552,1324,20262,1341.2573784230417,19619.56413508762,1378,0.0028514098637659733,-inf,1380.646062198438
41,208.506748325,1318,20562,1339.7141951119813,20339.738182064888,1379,0.0031698191644148827,inf,1381.1317583636965
42,209.0478713,1330,20957,1338.546241137939,21029.136990644907,1392,0.0031589137412747744,inf,1381.6330154703126
43,209.588888925,1343,21452,1337.6761874560889,21682.575777480386,1388,0.0022378039683723706,inf,1382.1036716573158
44,210.12980119999997,1351,21809,1337.4427733357238,22297.529592968836,1364,0.0006354482354091309,inf,1382.9686289609922
45,210.670608125,1349,22197,1337.1605245871679,22860.639357629403,1363,0.000671527244819647,inf,1383.8105959364614
46,211.2113097,1335,22568,1336.764411424922,23370.077261092665,1372,0.0017425705270098432,inf,1383.9181634917852
47,211.751905925,1322,22740,1336.840743844682,23821.332986024143,1384,0.002894761415631712,-0.828220930487283,1383.7706403315779
48,212.29239679999998,1319,22994,1337.0489025798745,24204.184896599687,1392,0.0033679354094579006,-0.9014576533058739,1383.4335319033007
49,212.83278232499998,1321,23382,1337.109742009986,24524.855829123633,1382,0.0027650605140292824,-0.7879448282614367,1382.8497587714066
50,213.37306249999997,1330,23806,1337.1578518199474,24783.98686266912,1379,0.0021801032212137392,-0.4238942936434151,1382.4208475842902
51,213.91323732499998,1326,24294,1337.5377245237462,24974.04958209651,1385,0.00256879136189481,0.0022916405620754246,1381.7655666039734
52,214.45330679999998,1333,24914,1337.9839180955144,25132.527192008398,1393,0.002544421356176583,0.0018906755537469553,1380.822215678698
53,214.993270925,1352,25419,1337.311422682255,25375.412036512233,1397,0.0018697801969501807,0.0018235914827660065,1379.290131146772
54,215.5331297,1346,25840,1336.397789304375,25748.20292645311,1389,0.0017555319670123296,0.0017733042985593522,1377.9150150626024
55,216.07288312499998,1336,26273,1336.0800471131593,26171.436159368903,1380,0.00176444640494045,0.0017410649421654525,1377.7230741352882
56,216.61253119999998,1339,26690,1336.444653333006,26607.243335069365,1382,0.001696185554810461,0.0017153860814749997,1378.2390541121847
57,217.152073925,1354,26983,1336.9539060907125,27057.05993340681,1392,0.0014826953841351595,0.0017008675447077503,1379.0127069695536
58,217.69151129999997,1351,27189,1337.6930847810565,27526.49448458576,1376,0.0009675671491601517,0.001663722232071667,1379.5661056875317
59,218.230843325,1331,27591,1338.189290810638,28014.811728464432,1363,0.0012185833968012185,0.0016113133002649473,1379.803596910436
60,218.77006999999998,1332,28162,1338.448458628709,28516.653536885904,1370,0.0014163250093179277,0.0015596121925483732,1379.8188860449575
61,219.30919132499997,1338,28832,1339.216562096511,29024.412059162732,1369,0.0011275187313595694,0.001476487352863666,1379.5504994450348
62,219.84820729999998,1335,29285,1339.6496862895845,29539.10965140716,1366,0.0011091234347048301,0.0014309521235186852,1379.7802441731146
63,220.38711792499998,1341,29649,1339.8814922195036,30071.284785611777,1374,0.0011657481983891479,0.0014111637615056938,1380.379147885543
64,220.9259232,1352,30288,1340.0727083285885,30628.7006953719,1377,0.0008639756704451202,0.0013837807863408737,1380.8020566716987
65,221.464623125,1358,30877,1340.2597340822865,31200.96280776402,1379,0.0007114062129475931,0.0013467132234136262,1380.9102584429731
66,222.0032177,1353,31261,1340.190785748236,31777.087929510817,1381,0.0009362043600374481,0.0013279899414194785,1381.0203175609602
67,222.54170692499997,1347,31690,1339.8280595256713,32353.01868671935,1383,0.0011864350921135024,0.0013287690815091573,1381.2721012933212
68,223.0800908,1347,32165,1339.446148270603,32931.94239960072,1385,0.0012330456226880395,0.0013436503086694661,1381.8949919590214
69,223.61836932499997,1338,32578,1339.3039479942663,33511.51577612112,1376,0.0012163892445582586,0.0013309833842618667,1382.1199347663328
70,224.1565425,1335,33298,1339.3970871367162,34085.058076059955,1369,0.0010637299377405124,0.0012689763667532716,1381.5489139051583
71,224.69461032499999,1333,33962,1339.7062900631695,34650.284196696884,1378,0.0013791412547120659,0.001190124786346645,1380.6637749439135
72,225.23257279999999,1326,34672,1339.9320709415585,35201.76182925933,1382,0.0016793618424998501,0.001128953804615849,1379.9246415547086
73,225.77042992499997,1328,35640,1339.8310720514364,35733.04858547124,1382,0.001573793425040802,0.0011085506719144408,1379.7605834786482
74,226.30818169999998,1322,36280,1339.4314480508929,36236.19595007745,1374,0.001487499284856113,0.0011220002718629412,1380.1245554825439
75,226.84582812499997,1315,36742,1338.7232100387068,36713.588371196834,1358,0.0012137635137042368,0.0011262161868319648,1379.9788217173398
76,227.3833692,1327,37318,1337.7703232236033,37160.0994360001,1382,0.0015281598177322108,0.001131283080375048,1379.6721330041187
77,227.92080492499997,1334,37640,1336.5798772338867,37570.57704591198,1398,0.0017627940285352283,0.0011574654751799903,1379.6016217807614
78,228.45813529999998,1358,37833,1336.0628100296467,37944.3223629067,1418,0.0016449623029472242,0.0011665297961841606,1379.7282611157407
79,228.99536032499998,1373,38091,1336.337674692493,38269.58424879312,1428,0.0014979029358897543,0.001157030172892374,1380.179528415113
80,229.53248,1357,38502,1336.339056377242,38536.50909420298,1396,0.0010499394265715439,0.0011614637005826214,1380.6550997757327
81,230.069494325,1336,39175,1336.004643366755,38748.43330539689,1378,0.0011099659081899628,0.0011722240798927015,1380.9110059117722
82,230.60640329999998,1322,39612,1335.7271738883976,38897.58191578443,1367,0.0011752415774353617,0.0011814143821580955,1381.140161725041
83,231.143206925,1316,39886,1335.937189970302,38969.02622935892,1368,0.0013481980814104226,0.001184747946514775,1381.6312034247396
84,231.67990519999998,1329,39956,1335.9471335703838,38959.79295114197,1371,0.001087322339296347,0.0011747369955705462,1381.4853337561171
85,232.216498125,1340,39947,1335.116423928036,38878.95179958701,1380,0.001036081539617168,0.001180901889263776,1380.8034610070179
86,232.75298569999998,1333,40036,1334.3807107748507,38730.77893043935,1388,0.0014210784693692996,0.001189523170547956,1380.2389861604756
87,233.289367925,1336,40125,1333.996828920222,38514.688396112426,1379,0.0011085617056381964,0.0012017162344810995,1379.9620376452206
88,233.8256448,1336,39978,1333.643366780649,38221.542073432414,1371,0.0009057502199679105,0.001217898735086973,1379.6794491381197
89,234.36181632499998,1338,39484,1333.3769960814257,37846.48687399415,1372,0.0008913123263251718,0.0012388889601694676,1379.4628417404433
90,234.89788249999998,1333,38862,1333.3248318194949,37406.18310720443,1374,0.0010924884755788857,0.0012624768733715084,1379.327708441841
91,235.433843325,1328,38309,1333.3642891118454,36907.26265600509,1374,0.0012438819934560991,0.0012795776588328737,1378.994745067812
92,235.9696988,1327,37795,1333.4539853677063,36341.02679562321,1368,0.0011242733355270374,0.0013113107289763177,1378.932931663205
93,236.505448925,1336,37084,1333.414414822507,35708.94525357244,1367,0.000867181380776547,0.001349632477851936,1378.8067679901887
94,237.04109369999998,1341,36377,1332.909148565061,35019.517656118376,1377,0.0010275145564562164,0.0014167347677780972,1378.748261568752
95,237.576633125,1344,35580,1332.0811796416424,34273.03241296453,1379,0.0010223156910854072,0.0015031172971662682,1378.7013295884128
96,238.11206719999998,1338,34694,1331.4611882488591,33479.694670320314,1386,0.0014390214654035256,0.001578854041985595,1378.482864844024
97,238.64739592499998,1327,33777,1331.1647149425553,32653.04208475781,1389,0.0019106317411402157,0.0016495356982602104,1378.4612108994277
98,239.1826193,1321,32646,1330.9050714625218,31810.18786382416,1382,0.0019473264166001596,0.0017295582124244242,1378.760107816685
99,239.71773732499997,1322,31621,1330.9387981607483,30970.10822442125,1373,0.001683223868774547,0.0018060301505345379,1379.2491109651144
100,240.25275,1329,30429,1330.4019117080543,30130.01596865103,1381,0.0017869415807560138,0.001892130743185985,1379.4326032299448
101,240.787657325,1344,29239,1329.5276676708165,29294.027656344995,1384,0.001433948736332676,0.001981150420131515,1379.3447643207965
102,241.3224593,1348,28108,1329.1910575550721,28477.381843302817,1383,0.0013079222720478326,0.002075319114314526,1380.0584837708402
103,241.85715592499997,1331,26992,1329.0340211556068,27686.382228362516,1387,0.0021822999883091073,0.0021803910411339286,1381.4254456499314
104,242.3917472,1322,26052,1329.5639085822756,26917.585494574672,1384,0.002507076425394258,0.002278446697785383,1383.3249677229117
105,242.92623312499998,1325,25280,1330.592470950619,26186.636843416112,1378,0.0022124817365894384,0.0023659556015449066,1385.4641781240532
106,243.46061369999998,1325,24326,1331.6066275566575,25517.29418559828,1377,0.0022607712708143123,0.0024250315515827597,1386.696527667644
107,243.994888925,1324,23548,1331.9821966522202,24919.18491925024,1380,0.0025197984161267097,0.0024759208226232633,1387.12815692312
108,244.52905879999997,1322,23128,1331.7056331966496,24388.670638066076,1383,0.0027973952123268825,0.0025320717345884195,1387.2633355228616
109,245.063123325,1327,22719,1331.2332782169215,23936.09803166504,1391,0.0029917726252804786,0.0025912702087274855,1387.5014836122864
110,245.59708249999997,1336,22202,1330.9451403202534,23574.6222564493,1397,0.002923416083580945,0.0026319470556568857,1387.38872907651
111,246.130936325,1333,21751,1330.8523635869187,23320.76644997577,1401,0.00333039474973063,0.0026640870740840964,1387.3888649799276
112,246.66468479999997,1326,21523,1330.815760266345,23182.597725882366,1391,0.0032182997474872505,0.0027031296049855394,1387.981811592535
113,247.19832792499997,1320,21532,1331.0783709710045,23165.00530023286,1387,0.0033148624579457746,0.002729518724451254,1388.6697773448734
114,247.7318657,1321,21781,1331.0690615868734,23266.097102991695,1392,0.0034701857282502446,0.0027532801025685625,1389.3569050261347
115,248.265298125,1325,21939,1331.1232870506437,23481.619379826956,1393,0.003298729019113224,0.0027640126601648604,1389.8529751522983
116,248.79862519999998,1331,22031,1331.330041450517,23802.37482162631,1404,0.003526570048309179,0.0027683988659931817,1390.4656277605116
117,249.33184692499998,1328,22423,1331.449319350356,24216.468323177865,1400,0.0034131310737141505,0.0027703764974647185,1391.0792996443593
118,249.8649633,1329,23058,1331.5115178146475,24739.647240027614,1408,0.003635694233512817,0.002763711767638606,1391.5936261296706
119,250.397974325,1349,23734,1331.429885161586,25377.013545040172,1413,0.00285905740451195,0.00274186163785209,1391.743640852541
120,250.93087999999997,1357,24645,1331.366531518242,26130.15039978205,1408,0.0021899690827894194,0.0027174020463077236,1392.1943871888109
121,251.46368032499998,1352,25901,1331.809599311397,26988.44562730701,1409,0.0023218868385677625,0.002685430581390226,1393.2364719472428
122,251.99637529999998,1342,27072,1332.1619289224868,27927.965367278455,1414,0.0027982899339292653,0.0026659407800434273,1394.949262723931
123,252.52896492499997,1334,28113,1332.280074293843,28942.027067430197,1411,0.0028753874304492328,0.0026642643708253066,1397.3649686289343
124,253.06144919999997,1324,29191,1332.2489750616971,30023.293800538508,1408,0.003014318010550113,0.002661740156983182,1399.8334956623894
125,253.593828125,1335,30473,1332.326281455953,31177.155337606146,1413,0.002676916741025465,0.002652031134493567,1402.5993567237947
126,254.1261017,1337,31850,1332.6817821467953,32391.627307526163,1406,0.0022613312358666796,0.0026613126221430796,1407.019434188743
127,254.65826992499998,1328,33234,1333.2678203356559,33644.66712722761,1402,0.0023193129818842853,0.002669845156719643,1412.2349090579355
128,255.19033279999996,1327,34532,1333.6714081858904,34923.08933384608,1398,0.002138232193946695,0.0026773883197099115,1417.6661532537273
129,255.722290325,1329,36180,1333.7160751092633,36223.16815782847,1406,0.002209405755932398,0.0027236961171460657,1424.468572334567
130,256.2541425,1333,37733,1333.634125348227,37539.96142607915,1419,0.0023626373626373627,0.0027950347755191667,1432.486307730612
131,256.78588932499997,1323,38976,1333.682076604201,38858.93852635319,1429,0.0028151807292911587,0.0028785869775099482,1441.6934245395994
132,257.3175308,1325,40531,1333.7122471629905,40157.50302385028,1447,0.003111768606845891,0.0029771391445728786,1451.7224625699057
133,257.849066925,1332,42407,1333.5028199958974,41420.40453917336,1454,0.0029701765063907485,0.0030918194281453963,1462.056920881532
134,258.3804977,1330,44174,1333.317651588912,42652.34567034279,1459,0.0030109233498272804,0.0032295718330547186,1473.3068699177502
135,258.91182312499996,1335,45605,1333.5100455276197,43855.45371356006,1484,0.003365710413372487,0.003394442234157324,1486.231715327612
136,259.4430432,1341,46597,1333.9454574282286,45013.27389068747,1504,0.003601732366978964,0.003580663913983281,1500.5420281319787
137,259.974157925,1334,47562,1334.3142313528926,46118.722236063346,1510,0.0038072164056416023,0.0038075934282466276,1516.4700899227325
138,260.5051673,1327,48508,1334.35729008582,47174.119436452915,1516,0.004005849812424493,0.0040678670383865,1533.9318217852883
139,261.03607132499997,1337,49391,1334.29500101925,48164.00944528663,1525,0.003912265368127523,0.0043554008244737225,1552.373236086858
140,261.56687,1339,50091,1334.2085437948508,49086.60196153839,1551,0.004348539547095504,0.0046766771178568785,1572.0837391560099
141,262.097563325,1330,50935,1334.1345217331962,49939.82853518671,1571,0.004858381211571414,0.005025618261551279,1593.2230854605687
142,262.62815129999996,1327,52255,1333.840539989555,50709.09877913332,1596,0.005281966698083569,0.005425117271224031,1616.170581440092
143,263.158633925,1326,53079,1333.323268930188,51401.52741851359,1621,0.005700152648155663,0.005860779140373663,1640.6187229608513
144,263.6890112,1340,53409,1332.9864323087472,52017.04527848774,1664,0.006222512435422228,0.006341680309783625,1667.0678158055357
145,264.219283125,1348,53463,1333.4202813200495,52539.81970146448,1702,0.006792670056605584,0.006852610817335279,1695.7462909691853
146,264.7494497,1338,53519,1334.0060250515044,52981.10410201715,1727,0.0074548207201855085,0.007382476111558769,1725.706358014871
147,265.27951092499995,1338,54052,1334.3324197603313,53362.63552968255,1758,0.007967522859202488,0.007949610339311883,1757.2522820448598
148,265.8094668,1336,54557,1334.799021495365,53676.63020679867,1788,0.00849288814565679,0.008572695147563716,1791.1955876689956
149,266.33931732499997,1334,54811,1335.1953158621682,53906.30317787389,1834,0.00934981393870262,0.009240773785872769,1826.5884617997795
150,266.8690625,1329,54613,1335.1198894651943,54045.349928649666,1873,0.010209443735455296,0.009949086619287933,1862.4950281999234
151,267.398702325,1324,54201,1335.4122403678195,54109.8877664263,1884,0.01059061595778883,0.010675799436483942,1899.2934154793627
152,267.9282368,1331,54069,1335.650139300978,54115.52710140556,1921,0.011187379119420532,0.011421949378776589,1937.0085392647254
153,268.457665925,1345,54006,1335.6004439511398,54058.59491721113,1979,0.012039270048043144,0.012197086707073335,1975.3629753787927
154,268.9869897,1344,53622,1335.775374300638,53932.62737547745,2007,0.012682199012969127,0.013005728930055846,2014.7974586060454
155,269.516208125,1340,53086,1336.3495209404261,53757.070465921184,2034,0.013411664669732926,0.013841561359023237,2055.312419307306
156,270.0453212,1338,52750,1337.1638995220474,53531.246121088916,2058,0.014004512565159884,0.014705008490950418,2096.5797639810235
