,x_(nm),baseline_dark,baseline_light,baseline_dark_smoothed,baseline_light_smoothed,raw_signal,calibrated_signal,calibrated_signal_smoothed,raw_signal_smoothed
0,186.23,1388,1406,1457.6706793021997,4719.209204081593,1339,-2.7222222222222223,,1327.0026118494477
1,186.775442325,1388,1400,1431.5463046757163,3570.482150570297,1330,-4.833333333333333,,1327.4240049833825
2,187.3207793,1383,1392,1409.075170038988,2567.1855211105762,1332,-5.666666666666667,,1328.1243418186489
3,187.86601092499998,1381,1386,1390.1194348566712,1704.1626279991287,1329,-10.4,,1329.0887747680908
4,188.41113719999998,1382,1389,1374.541258593423,976.2567835326513,1323,-8.428571428571429,,1330.3024562445516
5,188.956158125,1375,1393,1362.2028007138995,378.31130000784106,1321,-3.0,,1331.750538660876
6,189.50107369999998,1374,1399,1352.966220682758,-94.83051027860347,1325,-1.96,,1333.418174429907
7,190.045883925,1396,1407,1346.6936779646549,-448.3253350299856,1335,-5.545454545454546,,1335.290515964489
8,190.59058879999998,1408,1410,1343.2473320242466,-687.3298619496072,1340,-34.0,,1337.3527156774655
9,191.135188325,1400,1423,1342.4893423261904,-817.0007787407721,1340,-2.608695652173913,,1339.5899259816808
10,191.67968249999998,1401,1437,1344.2818683351427,-842.4947731067823,1345,-1.5555555555555556,,1341.9872992899786
11,192.22407132499998,1388,1431,1348.4870695157601,-768.9685327509378,1339,-1.1395348837209303,,1344.5299880152027
12,192.7683548,1385,1426,1354.9671053326992,-601.578745376547,1337,-1.170731707317073,,1347.2031445701969
13,193.312532925,1388,1415,1363.584135250617,-345.4820986869072,1345,-1.5925925925925926,,1349.9919213678052
14,193.8566057,1398,1408,1374.2003187341702,-5.835280385323131,1355,-4.3,,1352.8814708208713
15,194.400573125,1409,1422,1386.6778152480153,412.20502182490054,1364,-3.4615384615384617,,1355.8569453422392
16,194.9444352,1419,1431,1400.878784256809,903.4821202404655,1367,-4.333333333333333,,1358.9034973447529
17,195.488191925,1435,1435,1416.6653852252077,1462.8393271580662,1374,-inf,,1362.006279241256
18,196.0318433,1441,1434,1433.8997776178687,2085.119954874403,1370,10.142857142857142,,1365.1504434445924
19,196.575389325,1428,1438,1452.4441208994485,2765.16731568617,1370,-5.8,,1368.3211423676062
20,197.11883,1417,1432,1472.1605745346037,3497.8247218900688,1368,-3.2666666666666666,,1371.5035284231412
21,197.662165325,1424,1436,1492.9112979879908,4277.935485782792,1363,-5.083333333333333,,1374.682754024041
22,198.2053953,1425,1447,1514.5584507242665,5100.342919661038,1370,-2.5,,1377.8439715831498
23,198.74851992499998,1417,1431,1536.9641922080882,5959.890335821502,1366,-3.642857142857143,,1380.9723335133112
24,199.2915392,1420,1434,1559.9906819041116,6851.4210465608885,1364,-4.0,,1384.0529922273693
25,199.83445312499998,1436,1463,1583.5000792769636,7769.778364175711,1387,-1.8148148148148149,-inf,1387.0711001381417
26,200.3772617,1457,2642,1604.1288364402058,8573.27101406584,1398,-0.049789029535864976,-inf,1390.0263199619203
27,200.919964925,1575,7413,1624.887585222737,9392.75211216544,1409,-0.02843439534087016,-inf,1392.3001879997014
28,201.4625628,1718,13079,1645.4683231782963,10228.706856327239,1415,-0.02667018748349617,-inf,1394.2992366757753
29,202.005055325,1782,15402,1666.2060522321817,11078.422206618287,1413,-0.02709251101321586,-inf,1396.2545697524024
30,202.5474425,1817,16410,1687.0366033205414,11939.125461505128,1416,-0.027478928253272118,-inf,1398.3315137375437
31,203.089724325,1828,17114,1707.58855240206,12808.347437087798,1409,-0.02741070260368965,-inf,1400.1184851298742
32,203.63190079999998,1830,17801,1727.8425105891083,13687.529796824128,1401,-0.02686118589944274,-inf,1401.6443860562822
33,204.173971925,1843,18340,1748.3749575301485,14574.862896101558,1403,-0.02667151603321816,-inf,1403.4276201046184
34,204.71593769999998,1857,18690,1769.10691068877,15458.815080748984,1402,-0.02703023822253906,-inf,1405.125325601912
35,205.257798125,1862,18926,1789.161317357097,16331.259462275164,1408,-0.026605719643694327,-inf,1406.6734693877281
36,205.7995532,1862,19287,1808.5439307798244,17188.330766268442,1411,-0.02588235294117647,-inf,1408.2331196629325
37,206.34120292499998,1876,19896,1827.2863938027695,18031.512333234834,1424,-0.025083240843507215,inf,1409.2851933225852
38,206.88274729999998,1892,20584,1845.249813132765,18857.827266755397,1423,-0.02509094799914402,inf,1409.9523432014046
39,207.424186325,1884,20918,1861.7845930824803,19656.493374707996,1409,-0.02495534307029526,inf,1410.5148474483863
40,207.96552,1876,21113,1877.4074610976104,20426.03676187417,1398,-0.024847949264438323,inf,1411.431266846334
41,208.506748325,1879,21434,1892.3909261817575,21169.359419238986,1393,-0.02485297877780619,inf,1412.4445400801558
42,209.0478713,1894,21828,1906.440349724759,21881.721669799575,1410,-0.02428012441055483,inf,1412.9120931391153
43,209.588888925,1904,22305,1919.4966816915075,22556.62078416229,1413,-0.02406744767413362,-0.07689802863245082,1413.5407823506491
44,210.12980119999997,1913,22719,1931.5428209019087,23192.153434958447,1412,-0.024079592425261944,0.32323164577263835,1414.4191714421345
45,210.670608125,1930,23161,1941.7817391107014,23773.419647103667,1410,-0.02449248740049927,0.2712259063984784,1415.196765498625
46,211.2113097,1938,23467,1950.1386441368627,24297.57204013634,1405,-0.024757304101444562,0.2725561271941892,1415.6676481913248
47,211.751905925,1935,23599,1956.978912319607,24761.849917324944,1408,-0.024326070901033975,0.20011492874132697,1415.33844481186
48,212.29239679999998,1926,23885,1961.6852023828021,25154.63666221157,1410,-0.023498337811375745,0.18488639067875054,1414.5278035742328
49,212.83278232499998,1934,24305,1964.063398944446,25481.347799496667,1408,-0.023512583255107057,0.12047629269064507,1413.6981358580897
50,213.37306249999997,1947,24742,1964.7259507576243,25744.765974313763,1407,-0.023689405571397235,0.024924083039382927,1412.934630455929
51,213.91323732499998,1949,25264,1963.7782962241124,25938.939930688757,1409,-0.023161055114733004,-0.02234928670631273,1412.1266166843827
52,214.45330679999998,1960,25849,1961.6409205191137,26100.922648304102,1421,-0.022562685754949977,-0.022747787441584403,1411.1677501188883
53,214.993270925,1974,26331,1960.897483521673,26351.683956601006,1431,-0.0222933858849612,-0.022590421113451567,1409.8590908061067
54,215.5331297,1976,26808,1963.166006025014,26740.018211057497,1428,-0.022068298969072166,-0.0223817415448399,1408.7097556003264
55,216.07288312499998,1979,27286,1967.9874289338,27179.848807446986,1413,-0.02236535345951713,-0.02218883230681897,1408.8023058279643
56,216.61253119999998,1982,27742,1974.1373757049612,27631.762893836254,1413,-0.022088509316770186,-0.022014975445864653,1409.785521755845
57,217.152073925,1987,28022,1980.461550657961,28098.765476001183,1418,-0.021855194929902056,-0.021845433981400993,1410.7606967314957
58,217.69151129999997,1994,28208,1986.757978663125,28587.879634872268,1412,-0.022201876859693295,-0.021668762188227515,1411.480916895033
59,218.230843325,1993,28635,1993.5148247978052,29098.032707422033,1413,-0.021770137377073794,-0.02149261384890712,1412.423837459485
60,218.77006999999998,1998,29241,2000.7412625427144,29622.194138032,1411,-0.021546819366442756,-0.021344267699791305,1413.1006364809805
61,219.30919132499997,2008,29891,2008.136605585592,30150.669075176662,1408,-0.02151848796757881,-0.021212003735778782,1413.3768375274367
62,219.84820729999998,1997,30363,2015.8569843031169,30685.33704047598,1411,-0.02065853486568427,-0.021085889569842094,1413.498652291078
63,220.38711792499998,1993,30803,2023.9600217445081,31239.09182540881,1413,-0.020131898646303367,-0.02094412081501003,1413.9888559196993
64,220.9259232,2014,31485,2032.202903802992,31821.550748600715,1416,-0.020291133656815175,-0.020793936646871843,1414.5965933542957
65,221.464623125,2024,32117,2040.3543228611807,32420.440734783853,1406,-0.020536337354201975,-0.020631534903267145,1415.4254229993612
66,222.0032177,2024,32540,2048.5635688237167,33023.276744659495,1404,-0.020317210643596803,-0.020479572654044438,1416.029241885406
67,222.54170692499997,2031,32965,2056.4756393122893,33628.50288794698,1420,-0.01975172948858861,-0.02033958103518734,1416.070783030166
68,223.0800908,2046,33454,2064.394051960367,34238.24603048702,1418,-0.019994905756495162,-0.020184403555060775,1416.4945751885389
69,223.61836932499997,2051,33843,2072.367528143293,34849.577317718875,1400,-0.0204768495218923,-0.02002407870130858,1417.1627669935629
70,224.1565425,2060,34606,2080.6199460916046,35456.03730548756,1395,-0.02043261844773551,-0.01987832458682788,1417.817187252232
71,224.69461032499999,2068,35348,2089.0751545900976,36055.58264060272,1394,-0.020252403846153847,-0.019753883407777936,1418.3506308183378
72,225.23257279999999,2078,36077,2097.746766631141,36640.84728985864,1407,-0.019735874584546606,-0.0196616663134814,1418.5167047950983
73,225.77042992499997,2102,37115,2106.478130874951,37202.22675485218,1424,-0.019364236140861964,-0.019587740435691916,1418.594894561571
74,226.30818169999998,2122,37841,2114.5447915014656,37737.84192167361,1415,-0.019793387272879978,-0.019504201878952354,1418.6134000769848
75,226.84582812499997,2129,38330,2122.167818070584,38249.632018844546,1402,-0.02008231816800641,-0.01942647221554507,1418.4383564746383
76,227.3833692,2144,38867,2129.586355296795,38729.152211827386,1420,-0.019715164883043323,-0.019372128884643434,1417.9729552197964
77,227.92080492499997,2150,39217,2136.642891118671,39170.92570613076,1436,-0.019262416704885748,-0.01933221201326377,1417.2977417381776
78,228.45813529999998,2177,39417,2143.780425377657,39573.82101519777,1465,-0.01911922663802363,-0.01930088429699687,1417.0402274116923
79,228.99536032499998,2200,39680,2150.7750345420773,39926.64198509516,1477,-0.019290288153681962,-0.01928726042396743,1417.0210423791884
80,229.53248,2176,40166,2156.8051144985884,40220.17305035143,1442,-0.019320873914187943,-0.019265453786415004,1417.2663480486265
81,230.069494325,2168,40930,2162.2120546331325,40456.821196402314,1418,-0.0193488468087302,-0.01924814164270294,1417.684998527686
82,230.60640329999998,2177,41387,2166.876191986187,40628.1742734822,1411,-0.01953583269574088,-0.01924101384617722,1418.2247163015877
83,231.143206925,2184,41605,2170.6548279688823,40718.70214500817,1409,-0.019659572309175314,-0.019250506069052327,1418.9915966386286
84,231.67990519999998,2185,41677,2173.9103037440973,40723.66436385797,1399,-0.01990276511698572,-0.019329357388930067,1419.2369023080657
85,232.216498125,2187,41717,2176.4511087453434,40654.68959659257,1402,-0.019858335441436885,-0.019463366729459836,1418.9211307164103
86,232.75298569999998,2190,41871,2178.1048721374927,40516.15841808343,1419,-0.01942995388221063,-0.019616226237164105,1418.5789712110986
87,233.289367925,2180,41996,2179.03205055603,40304.30342703041,1428,-0.018886879646373318,-0.019771252985518448,1418.8415592651884
88,233.8256448,2180,41851,2178.9328863620503,40011.959727286376,1432,-0.01885508305815331,-0.01994555638751231,1419.4621169222135
89,234.36181632499998,2192,41355,2177.4782894289374,39634.63944823136,1432,-0.019406072057809667,-0.02014646934033932,1420.0949738385648
90,234.89788249999998,2187,40754,2175.505787220507,39190.82090194493,1412,-0.020094899784790104,-0.020388713101344033,1420.6984076649253
91,235.433843325,2171,40226,2172.907970735422,38687.64778364101,1405,-0.020128761003810273,-0.020686772083678532,1420.6404222065914
92,235.9696988,2174,39675,2169.17873564516,38113.95852680621,1414,-0.02026612623663369,-0.021025888844806297,1420.1549298964596
93,236.505448925,2179,38928,2164.168271081976,37470.74817096578,1415,-0.02078968135187352,-0.021380041675960356,1419.7688735871434
94,237.04109369999998,2178,38170,2158.5800584384283,36766.33692722301,1408,-0.021393643031784843,-0.021759831456784423,1419.5820516885724
95,237.576633125,2167,37382,2152.815148700949,36001.783347300494,1405,-0.021638506318330256,-0.02219810663259793,1419.1194138032301
96,238.11206719999998,2166,36499,2146.619062719386,35190.578019886525,1404,-0.022194390236798416,-0.022669418510351445,1418.5203288862444
97,238.64739592499998,2155,35518,2139.89209268609,34343.65888242023,1408,-0.022390072835176692,-0.023152273018646256,1417.94860585741
98,239.1826193,2134,34437,2132.7387483294797,33475.12213187097,1411,-0.022381822121784356,-0.02361590786825693,1418.05846112027
99,239.71773732499997,2126,33316,2126.0256177942465,32610.40406351157,1413,-0.02285989099070215,-0.02408018139377942,1418.6020974427236
100,240.25275,2125,32024,2120.19554236785,31749.77689188823,1416,-0.023713167664470385,-0.02458776064451137,1418.5468300527486
101,240.787657325,2121,30815,2114.7896894606497,30892.482660988335,1424,-0.02429079250017425,-0.025125453831244784,1417.69476092321
102,241.3224593,2110,29696,2109.287390427829,30056.913338919898,1434,-0.024505183788878417,-0.02562688965033231,1417.2100613830169
103,241.85715592499997,2090,28529,2103.792430179579,29243.70266597149,1435,-0.02477400809410341,-0.026081214067211537,1417.546807402179
104,242.3917472,2079,27508,2099.130897642036,28453.103377199397,1443,-0.025010814424475992,-0.0264998053380816,1419.1047815352283
105,242.92623312499998,2084,26700,2095.1479761715605,27702.87102765582,1438,-0.026243093922651933,-0.026890620068470268,1421.0112573330946
106,243.46061369999998,2078,25732,2090.945910439608,27019.879068608057,1420,-0.027817705250697558,-0.027250377157063126,1421.8788194522817
107,243.994888925,2075,24960,2087.024983578297,26412.0043262583,1415,-0.028839851431068386,-0.027574920499238532,1422.1889057509525
108,244.52905879999997,2079,24512,2084.1313733039983,25872.418197467174,1411,-0.029777559844871394,-0.027869525983459528,1422.5684613467756
109,245.063123325,2073,24121,2082.191442614742,25410.714059208105,1422,-0.029526487663280115,-0.02812983862339233,1422.858592493574
110,245.59708249999997,2064,23577,2080.8511404561427,25042.04695463043,1444,-0.028819783386789383,-0.028354556687844475,1422.4295454030396
111,246.130936325,2066,23104,2080.453124646045,24783.813381956083,1447,-0.029422948949519915,-0.02852660981022961,1422.0038052956759
112,246.66468479999997,2069,22907,2081.3543681623196,24647.50021517994,1425,-0.03090507726269316,-0.0286387569125645,1421.95664680964
113,247.19832792499997,2060,22920,2083.3831796869295,24639.428050464998,1414,-0.03096836049856184,-0.02868308092334303,1422.3041518493915
114,247.7318657,2067,23231,2086.3229744727682,24754.789349701678,1413,-0.030901530901530902,-0.02865916083800024,1423.0403406645405
115,248.265298125,2073,23370,2090.5727423044286,24985.95275091121,1415,-0.030896370380804807,-0.02858445902748822,1424.0470452331604
116,248.79862519999998,2075,23427,2095.8563274365947,25325.51414528027,1426,-0.030395279130760584,-0.028467870369729247,1424.8365534892928
117,249.33184692499998,2086,23872,2101.3471199800274,25764.312215451726,1438,-0.02974387221151198,-0.02828788995375705,1425.6093682755848
118,249.8649633,2113,24544,2108.338308908428,26315.60162178029,1454,-0.02937898444117516,-0.028061287175089787,1426.6591768782712
119,250.397974325,2130,25291,2116.821943871848,26982.02106502927,1451,-0.02931652346617158,-0.027788942055660633,1428.152143876391
120,250.93087999999997,2126,26214,2127.0102154068763,27763.64694557015,1445,-0.028271338425772168,-0.027486265965676066,1429.6444766585605
121,251.46368032499998,2136,27435,2138.896328342617,28653.370721873107,1444,-0.027352859796829915,-0.027150363546607496,1431.3228838705018
122,251.99637529999998,2152,28711,2151.779360800883,29629.54864209778,1440,-0.026808238261982757,-0.02677763739611468,1433.2757933361747
123,252.52896492499997,2171,29936,2165.602799610369,30681.299463180912,1427,-0.026796326310102647,-0.02636742381916229,1435.5752791682437
124,253.06144919999997,2180,31058,2180.2973113773396,31802.30138847931,1428,-0.026040584528014405,-0.025913661694608903,1438.563614124868
125,253.593828125,2174,32310,2196.184398287575,32992.52030623507,1440,-0.02435625165914521,-0.025427291396804816,1442.4749824457808
126,254.1261017,2172,33778,2213.006681918008,34240.78429862445,1455,-0.022685566031766122,-0.02491287748351732,1447.539400665899
127,254.65826992499998,2200,35077,2229.8819678814493,35528.188112980366,1464,-0.022386470785047297,-0.024360407404887655,1453.6930847810543
128,255.19033279999996,2222,36555,2247.3049446193145,36841.73670977754,1459,-0.022223516733172168,-0.023783692477431482,1460.7795873065927
129,255.722290325,2244,38260,2264.948583206824,38173.305352328876,1457,-0.0218513993780542,-0.02317704157028424,1469.1667987949616
130,256.2541425,2277,39798,2282.7144669187996,39518.357539241355,1473,-0.0214280003198209,-0.02253257415506765,1479.4013001426702
131,256.78588932499997,2298,40988,2300.565743278399,40862.05293438052,1490,-0.020883949340914965,-0.021883676169905355,1490.8583206867368
132,257.3175308,2318,42577,2317.9710072707885,42182.061564247524,1498,-0.020368116446012073,-0.021254554493477316,1502.7785680309573
133,257.849066925,2332,44545,2335.240549049763,43467.48968266469,1499,-0.019733257527302015,-0.02064881165273098,1515.2877754875244
134,258.3804977,2350,46361,2352.634465106752,44720.4405309285,1510,-0.01908613755651996,-0.020069085692068292,1528.6501393009742
135,258.91182312499996,2378,47831,2369.7635507032546,45942.11218827066,1536,-0.018524629837414472,-0.019469202581334902,1544.115835013221
136,259.4430432,2399,48891,2386.3968606309995,47114.78377766111,1553,-0.018196678998537382,-0.018842565299212598,1561.7343994201156
137,259.974157925,2411,49836,2402.7820788692375,48234.36739223899,1576,-0.01760674749604639,-0.018228390615053918,1581.1460961742887
138,260.5051673,2415,50679,2419.2066864481176,49305.10278828418,1596,-0.016969169567379414,-0.01766126270909477,1601.9304627511076
139,261.03607132499997,2436,51510,2434.365738748283,50307.92489071004,1615,-0.016729836573338226,-0.017096744862200936,1623.9399986409348
140,261.56687,2459,52267,2448.5222768352155,51240.30958798515,1637,-0.016503372952136202,-0.01653196194259848,1647.3850596842194
141,262.097563325,2477,53138,2461.7666991324363,52098.098484675895,1656,-0.016205759854720593,-0.015975848493237882,1672.3376973430559
142,262.62815129999996,2513,54395,2473.570114838341,52866.27996104001,1681,-0.016036390270228594,-0.01541646055319933,1698.65421640351
143,263.158633925,2525,55164,2484.132030170511,53554.042379214814,1716,-0.01536883299454777,-0.014840518164352837,1726.8450927540498
144,263.6890112,2540,55511,2494.604566354796,54161.62486126422,1742,-0.015064846802967661,-0.014268395752228814,1757.155043149302
145,264.219283125,2541,55614,2504.0899680626485,54676.505787219496,1778,-0.01437642492416106,-0.013691787904370796,1789.148338580681
146,264.7494497,2527,55657,2511.6623706085725,55108.95757548196,1815,-0.013401091661961228,-0.013080065693083988,1822.5582912409898
147,265.27951092499995,2543,56080,2518.636141248904,55479.55267389869,1855,-0.012850925528139417,-0.012441298077471822,1858.283290674725
148,265.8094668,2549,56526,2524.813585811635,55785.36607850581,1903,-0.01196806047020027,-0.011773274596564378,1896.2870959704273
149,266.33931732499997,2541,56793,2529.9139731363753,56008.24906566292,1944,-0.011004202610042027,-0.011100288295949744,1935.148089424412
150,266.8690625,2527,56646,2533.673559989985,56136.53899295459,1980,-0.01010735601175188,-0.010402297268174408,1974.902217490732
151,267.398702325,2523,56237,2535.63303812086,56186.109130443554,2012,-0.009513348475257847,-0.009654503233520267,2015.7536524043192
152,267.9282368,2544,56064,2536.037667897299,56179.03171079645,2055,-0.00913677130044843,-0.008840951957540553,2058.719812453244
153,268.457665925,2538,55974,2535.73686833219,56107.62857595761,2112,-0.0079721536043117,-0.007990686943942456,2103.7749212892304
154,268.9869897,2526,55645,2534.244830007426,55972.16784072012,2153,-0.007021969540089233,-0.007102842032803027,2150.037871752433
155,269.516208125,2518,55109,2531.657500736095,55786.04591270363,2185,-0.006331881880930197,-0.006179475620773507,2197.1998006749445
