,x_(nm),baseline_dark,baseline_light,baseline_dark_smoothed,baseline_light_smoothed,raw_signal,calibrated_signal,calibrated_signal_smoothed,raw_signal_smoothed
0,186.23,1288,1289,1284.723020638669,4467.874969565314,1295,7.0,,1285.1561323126245
1,186.775442325,1295,1285,1289.1349409171821,3370.1534256018144,1293,0.2,,1288.1500820550762
2,187.3207793,1293,1291,1293.3127673646454,2411.324841705748,1291,1.0,,1291.1575227091316
3,187.86601092499998,1294,1294,1297.262057930735,1586.4739295685963,1290,-inf,,1294.1747159918634
4,188.41113719999998,1306,1290,1300.9883705651262,890.6854008818418,1284,1.375,,1297.197923620343
5,188.956158125,1311,1284,1304.4972632174943,319.0439673369665,1285,0.9629629629629629,,1300.2234073116426
6,189.50107369999998,1298,1283,1307.7942938375154,-133.36565937454816,1292,0.4,,1303.2474287828338
7,190.045883925,1309,1299,1310.8850203748648,-471.45876756121925,1308,0.1,,1306.266249750989
8,190.59058879999998,1319,1309,1313.775000779218,-700.1506455315666,1326,-0.7,,1309.2761319331798
9,191.135188325,1317,1315,1316.4697930002512,-824.3565815941074,1326,-4.5,,1312.2733370464782
10,191.67968249999998,1318,1321,1318.9749549876392,-848.9918640573587,1330,4.0,,1315.254126807956
11,192.22407132499998,1322,1325,1321.2960446910581,-778.9717812298395,1325,1.0,,1318.2147629346855
12,192.7683548,1318,1328,1323.4386200601834,-619.2116214200678,1313,-0.5,,1321.1515071437382
13,193.312532925,1311,1320,1325.4082390446906,-374.6266729365625,1305,-0.6666666666666666,,1324.0606211521863
14,193.8566057,1306,1321,1327.2104595942553,-50.13222408784077,1316,0.6666666666666666,,1326.9383666771016
15,194.400573125,1317,1329,1328.8508396585532,349.3564368175803,1322,0.4166666666666667,,1329.7810054355562
16,194.9444352,1327,1333,1330.33493718726,818.9240214711817,1332,0.8333333333333334,,1332.5847991446217
17,195.488191925,1335,1341,1331.668310130051,1353.6552415644446,1348,2.1666666666666665,,1335.3460095213704
18,196.0318433,1347,1345,1332.856516436602,1948.6348087888514,1360,-6.5,,1338.060898282874
19,196.575389325,1349,1333,1333.9051140565884,2598.9474348358835,1351,-0.125,,1340.7257271462045
20,197.11883,1345,1320,1334.8196609396862,3299.6778313970253,1341,0.16,,1343.336757828434
21,197.662165325,1339,1330,1335.6057150355705,4045.910710163759,1357,-2.0,,1345.890252046634
22,198.2053953,1326,1335,1336.2688342939173,4832.730782827562,1351,2.7777777777777777,,1348.3824715178766
23,198.74851992499998,1320,1335,1336.814576664402,5655.22276107992,1331,0.7333333333333333,,1350.809677959234
24,199.2915392,1328,1351,1337.2485000967001,6508.471356612311,1328,0.0,,1353.168133087778
25,199.83445312499998,1357,1363,1337.5761625404625,7387.561281116078,1346,-1.8333333333333333,inf,1355.4540986205543
26,200.3772617,1361,2455,1337.7763029739942,8157.283335975743,1353,-0.007312614259597806,inf,1357.8017395637241
27,200.919964925,1346,7014,1337.6279190921396,8941.24643819775,1346,0.0,inf,1359.9754920835996
28,201.4625628,1338,12401,1337.1621327776138,9741.071621101084,1357,0.0017174365000451957,inf,1361.7567328818059
29,202.005055325,1336,14650,1337.0719382092202,10555.551405467646,1366,0.002253267237494367,-0.15769126232513328,1363.690208158709
30,202.5474425,1337,15635,1337.3779927064909,11380.549298964648,1385,0.003357112882920688,-0.11759372080872921,1365.5452445128735
31,203.089724325,1345,16333,1337.450882239663,12215.153638813783,1386,0.0027355217507339206,-0.08231744679375307,1366.9675870347878
32,203.63190079999998,1347,16994,1336.755283245348,13059.883893179665,1384,0.002364670543874225,-0.05891805845967634,1368.1347029377525
33,204.173971925,1337,17490,1336.4666470361474,13911.591202518475,1372,0.0021667801646752926,-0.042036774307332,1369.761738657701
34,204.71593769999998,1335,17873,1336.7071507848168,14761.044576320814,1373,0.0022977385415406944,-0.0496123815436167,1371.5146209426905
35,205.257798125,1329,18121,1336.9727966658106,15600.912115789413,1384,0.003275369223439733,-0.18365767799147248,1372.8637568234578
36,205.7995532,1334,18432,1337.2539808375923,16426.66300482426,1373,0.002280968534331501,-0.06844735660699129,1374.196742848056
37,206.34120292499998,1351,19023,1337.4914267593574,17239.45944415469,1374,0.0013014938886373925,-0.02671643414901183,1375.4571564474584
38,206.88274729999998,1337,19694,1337.209880178461,18036.86957801954,1378,0.0022334804161900095,-0.02694892351110339,1376.1026070805417
39,207.424186325,1319,19996,1336.3653536886197,18808.65634555673,1372,0.0028377148364298337,-0.03471092519493036,1376.088586377921
40,207.96552,1319,20200,1335.3690683820444,19552.873405965787,1372,0.002807054711085218,-0.002499414044827398,1376.2991460734972
41,208.506748325,1322,20537,1334.7294842465033,20271.558291240635,1374,0.0027062190996617226,0.026208509936852104,1376.410564225664
42,209.0478713,1332,20895,1334.0095132392325,20959.794219574225,1377,0.0023002606962122373,0.07169892004965674,1376.9358082855517
43,209.588888925,1329,21335,1333.1728011959246,21612.68921153326,1385,0.0027991602519244225,0.16626495295843016,1377.6860178033214
44,210.12980119999997,1315,21751,1332.9417200842347,22228.035040430837,1383,0.003327461342728518,-0.006045235532617061,1378.7459059095072
45,210.670608125,1325,22187,1333.4548007882142,22790.6619855485,1377,0.0024925702233726393,-0.009222865467986528,1379.6855874424982
46,211.2113097,1331,22534,1333.9831026750066,23298.957960542262,1365,0.0016035466679243503,-0.0038575311214228067,1380.2682506964784
47,211.751905925,1334,22660,1334.2252825658309,23751.479829667256,1367,0.0015474069211291381,-0.06751830808348938,1381.0147908219624
48,212.29239679999998,1342,22911,1333.9583229517966,24135.915671928688,1380,0.0017617877509388475,0.011741430754198031,1381.3877098008752
49,212.83278232499998,1333,23292,1333.1241024711517,24456.094747332423,1389,0.002550207204335352,0.04103247095853306,1381.2076604226331
50,213.37306249999997,1331,23700,1332.4010509864067,24715.149742915564,1389,0.0025928740667888594,0.051195840541644395,1380.726562323016
51,213.91323732499998,1332,24235,1332.1183039253185,24906.500939998165,1384,0.002270444919879492,0.0023400691360443595,1380.1598224195075
52,214.45330679999998,1346,24848,1331.8045708849322,25065.080613376944,1384,0.0016168836694749383,0.002072640783564982,1379.4862624294735
53,214.993270925,1352,25344,1330.460123672085,25307.73097918364,1391,0.0016255418472824275,0.001986387354013121,1377.796484631562
54,215.5331297,1336,25786,1328.9774853337303,25679.643412081325,1379,0.0017586912065439672,0.0019438098766771715,1376.443702009079
55,216.07288312499998,1329,26263,1328.5526965502927,26100.928061790255,1366,0.0014839175423117029,0.0019144917941118654,1376.3872567894819
56,216.61253119999998,1338,26662,1328.6410337719742,26536.60932297396,1370,0.001263623440214816,0.0019260503119455242,1377.5934449251135
57,217.152073925,1348,26917,1329.2657591338166,26987.68228045883,1375,0.0010559662090813093,0.0019181579036228538,1378.9685610092831
58,217.69151129999997,1342,27148,1330.021789847989,27457.323586037666,1366,0.0009300162752848175,0.0018972531728447442,1380.226550997731
59,218.230843325,1331,27552,1330.694489116376,27944.55416883681,1373,0.001601769574005568,0.0018627673295514165,1381.031393689525
60,218.77006999999998,1324,28093,1331.346236607825,28445.365829350063,1383,0.0022040419888677202,0.0018190167295866876,1381.3860336587202
61,219.30919132499997,1319,28695,1331.6931300821964,28950.49826723087,1385,0.002410870835768556,0.0018008018896254066,1381.716777276922
62,219.84820729999998,1319,29150,1332.340755169967,29461.020725270675,1379,0.0021558693543171285,0.0017479829186941966,1381.571247366845
63,220.38711792499998,1328,29558,1333.3762259620573,29989.51310335397,1382,0.0019128586609989374,0.0016722714149492136,1381.5991302180985
64,220.9259232,1336,30186,1334.0016081904203,30544.531223809692,1389,0.0018370883882149046,0.0016305111513672751,1382.0323450134506
65,221.464623125,1331,30787,1334.3074361819945,31114.024870324887,1385,0.001833242802824552,0.0016068580395034132,1382.4544157285293
66,222.0032177,1324,31200,1334.5560488346027,31686.467054745815,1388,0.0021421877091980183,0.0015762155257856467,1382.4957530181616
67,222.54170692499997,1333,31630,1334.743029287161,32259.7845930819,1378,0.00148529557381919,0.001545607059124652,1382.4596253595512
68,223.0800908,1345,32085,1334.8693515141651,32833.32761783896,1382,0.0012036434612882239,0.0015178043965650024,1382.6146458583166
69,223.61836932499997,1339,32457,1334.5936940813806,33406.00527758209,1382,0.001381836878976798,0.0015098632065339444,1382.7879453667992
70,224.1565425,1317,33196,1333.887177512489,33976.83095879795,1375,0.0018193795288434392,0.0015200649960584983,1382.8452966091832
71,224.69461032499999,1311,33881,1333.4858547192205,34541.252938910744,1372,0.0018728891618053423,0.001508337253661816,1382.7119074044447
72,225.23257279999999,1312,34517,1333.2419080839627,35091.269541778296,1378,0.0019876524619786176,0.0014714414707677986,1382.1855081655037
73,225.77042992499997,1312,35467,1332.9236449296443,35621.168520237596,1382,0.0020494803103498754,0.0014354073569478685,1381.6158916396482
74,226.30818169999998,1320,36184,1333.0286076694572,36119.86907970667,1375,0.0015775585130793942,0.0013999740254691067,1381.3959772588016
75,226.84582812499997,1320,36662,1332.9903508572986,36593.463317401736,1373,0.0014996321656952068,0.0013881704327723067,1381.520057079409
76,227.3833692,1335,37189,1332.7141498108422,37037.88244354274,1387,0.0014503263234227702,0.0013809831044232018,1381.4954132596167
77,227.92080492499997,1347,37531,1332.4131916917459,37446.17769371828,1395,0.0013265531726730046,0.001362014911090579,1381.1440802735922
78,228.45813529999998,1377,37718,1332.5395592198888,37815.61926657383,1423,0.001265787953000743,0.001327521373144,1380.8583206867388
79,228.99536032499998,1385,37984,1333.017508890323,38137.55512016054,1426,0.0011202491871362605,0.0012969000862850164,1380.9979840992735
80,229.53248,1355,38439,1332.9579152415427,38402.437155993735,1393,0.0010247006795383454,0.001276218326676268,1380.801445106318
81,230.069494325,1342,39053,1332.3326915671673,38613.000407709515,1368,0.0006894540054625971,0.0012537579320039383,1379.9592063240125
82,230.60640329999998,1334,39428,1331.9202246936256,38761.72289293001,1361,0.0007087730351236415,0.0012288655145484871,1379.2068450021256
83,231.143206925,1334,39675,1331.708668372984,38832.8743799399,1360,0.0006781252445163141,0.0012131855594904417,1378.7340823121438
84,231.67990519999998,1328,39762,1331.29835330356,38822.75795601185,1359,0.0008065775094967997,0.0012002178839554435,1377.9836462886776
85,232.216498125,1326,39799,1330.6522458039565,38741.696550317494,1371,0.0011696514438697268,0.001205766788177081,1377.3907676277795
86,232.75298569999998,1329,39924,1329.858456590158,38594.01778069644,1382,0.0013732348749838062,0.0012215189116491492,1376.9090353122117
87,233.289367925,1322,39981,1328.8765543953177,38376.58549457444,1388,0.0017072350552264674,0.0012642718214299414,1376.7797232100124
88,233.8256448,1326,39803,1327.8385920405644,38081.34415275471,1383,0.0014814044754008888,0.001330070792501513,1376.9268386599658
89,234.36181632499998,1327,39314,1327.3015243833129,37705.11855308088,1372,0.0011846157896122358,0.0013800129640512179,1377.0957439579345
90,234.89788249999998,1317,38701,1327.1770595030212,37264.91838999679,1363,0.0012304729295955488,0.0014087868717056408,1377.1477723164473
91,235.433843325,1313,38175,1326.7309791841012,36767.674692517816,1372,0.00160056426672454,0.001446422992783206,1376.9963985593972
92,235.9696988,1312,37666,1325.8441640807014,36205.82303109853,1374,0.001705451944765363,0.0015146395732820019,1377.0380756075751
93,236.505448925,1320,37024,1325.1111689958748,35577.706086207385,1368,0.0013443871835088505,0.0015616406373742118,1376.494711091958
94,237.04109369999998,1329,36324,1324.7283517180201,34889.953430428104,1374,0.0012858979854264896,0.0016093402566878631,1376.102992140226
95,237.576633125,1327,35448,1324.305125823889,34144.6996760962,1376,0.0014360657659505877,0.0016684471455751613,1375.8261795283886
96,238.11206719999998,1323,34551,1323.0148361231031,33354.54377222523,1376,0.0015950403274346936,0.0017656055776560863,1375.5750979636875
97,238.64739592499998,1321,33641,1321.0532288386798,32531.652404357348,1375,0.0016707920792079208,0.0018933514270606379,1375.3870755849246
98,239.1826193,1325,32460,1319.1294480055922,31689.3476862437,1375,0.0016059097478721696,0.002031500586729136,1375.5434324673001
99,239.71773732499997,1318,31535,1317.18852069127,30849.69587080056,1374,0.00185326140914055,0.0021711779306182516,1375.8040952229687
100,240.25275,1312,30320,1315.4667376384266,30011.759564202464,1371,0.00203392167677882,0.0022966991291948754,1375.8526127431842
101,240.787657325,1315,29050,1314.2143649912543,29179.653333030765,1377,0.0022354425815756264,0.0024061740308076334,1375.931663231304
102,241.3224593,1314,27963,1313.8597476726288,28367.942829961634,1385,0.0026642650756125933,0.00250097642591476,1376.5126050419904
103,241.85715592499997,1312,26922,1314.3088178667442,27582.523454664355,1385,0.0028504490433424443,0.0025755376045456346,1377.2950236698189
104,242.3917472,1306,25953,1315.5509524564288,26819.380144510124,1380,0.003002393800462531,0.0026585076634376356,1379.1999365783786
105,242.92623312499998,1307,25169,1317.021359487166,26094.845296608713,1381,0.0031011650322688793,0.0027367398930119797,1381.264875761599
106,243.46061369999998,1317,24256,1318.0858230084236,25430.593195768386,1390,0.0031823531976110553,0.0028076554653885936,1382.8126797888704
107,243.994888925,1318,23453,1318.5788353076828,24834.662098801313,1391,0.0032979444318951886,0.0028722486320989374,1383.731386894354
108,244.52905879999997,1323,23005,1318.9209042107154,24306.06224376496,1387,0.002951757217968822,0.002919938205582141,1384.0144510634175
109,245.063123325,1327,22658,1319.4923101315746,23852.681691544083,1387,0.0028128076508368103,0.002951565691052866,1384.074837482136
110,245.59708249999997,1326,22147,1319.6462207524266,23489.53258284401,1388,0.0029777628355986746,0.002981693856592912,1383.9143128949431
111,246.130936325,1324,21663,1319.646583161541,23234.116741035596,1396,0.0035399970500024584,0.0030131419770223857,1383.9368502117563
112,246.66468479999997,1324,21438,1319.8942671407933,23094.662733017296,1389,0.003231579994034006,0.003036702107696636,1384.1566060386153
113,247.19832792499997,1324,21480,1320.207615121495,23075.36170694649,1374,0.0024806509228021433,0.0030601500454934157,1384.7122018618502
114,247.7318657,1314,21757,1320.572583750456,23174.358694420724,1375,0.0029839064716528883,0.003072176203676307,1385.1940700808361
115,248.265298125,1306,21878,1320.754739631676,23387.49665904053,1387,0.00393739062803811,0.0030811084529265387,1385.825137602184
116,248.79862519999998,1310,21939,1321.0800697637292,23704.333144578133,1393,0.004023462116438024,0.0030837454754495223,1386.6530385738936
117,249.33184692499998,1316,22274,1321.7499603614779,24115.182223832468,1393,0.003674014696058784,0.003083633306949154,1387.8457043194371
118,249.8649633,1319,22930,1322.2111259597923,24635.14188316789,1407,0.004072000370181851,0.0030861426041246427,1389.2882284989198
119,250.397974325,1321,23677,1322.556116786312,25269.90081315497,1411,0.004025764895330112,0.003079481126190028,1390.7665632290386
120,250.93087999999997,1319,24575,1323.1682937325622,26020.10686538717,1413,0.004041967664258686,0.0030595568066728437,1392.3795555957965
121,251.46368032499998,1327,25789,1324.0504881197508,26873.841491312993,1410,0.0033930177418036137,0.003033981079180143,1394.403293392802
122,251.99637529999998,1344,26967,1324.971981245303,27810.05137149146,1408,0.0024977559224134568,0.003006334923636873,1396.6495277355957
123,252.52896492499997,1345,28048,1325.6834356383808,28821.485514960154,1405,0.0022469385462307607,0.0029816733127289306,1399.1531631520265
124,253.06144919999997,1347,29110,1326.399035085707,29896.941131168875,1409,0.0022331880560458165,0.00296227485651546,1402.3613445377882
125,253.593828125,1350,30414,1327.215701374864,31047.939590930124,1413,0.002167630057803468,0.0029478750670259885,1406.27683526238
126,254.1261017,1336,31760,1328.016761421524,32259.293959092458,1413,0.0025308966605311596,0.0029403894189751765,1410.920428548751
127,254.65826992499998,1321,33056,1328.8292147047243,33505.48748555962,1414,0.002930518355128407,0.0029488873350380683,1416.595574078661
128,255.19033279999996,1306,34336,1329.2985118575477,34778.71872522528,1422,0.003511958825310324,0.002989451398774027,1423.5414392171692
129,255.722290325,1313,35957,1329.5935128768233,36074.65872386621,1423,0.0031751529846438054,0.0030501104108336978,1431.4800335228158
130,256.2541425,1323,37468,1329.7975492083372,37387.14897279595,1436,0.0031262968598699684,0.003131307304652641,1440.5500464336403
131,256.78588932499997,1315,38785,1330.227683526215,38701.87487825245,1434,0.003175874032559381,0.0032281472197887417,1450.7099594554525
132,257.3175308,1326,40375,1330.7948311399775,39996.89485605486,1438,0.0028681912468949268,0.0033476021565429152,1462.0868422840556
133,257.849066925,1327,42178,1331.1362658270602,41257.366871276026,1459,0.003231255048836014,0.0034917346875465946,1474.2388729076254
134,258.3804977,1322,43978,1331.6859498516133,42488.11855308079,1474,0.003563390847711928,0.003645298970645853,1487.3155450859304
135,258.91182312499996,1333,45427,1332.177059503021,43691.87750571843,1491,0.003583253957454529,0.0038262404582172583,1502.0056852929563
136,259.4430432,1340,46443,1332.5254705655593,44850.442410925774,1511,0.003791322085005432,0.004036690159065761,1517.96389499193
137,259.974157925,1339,47429,1333.0872046931725,45956.76950780224,1535,0.004252549359947928,0.004293301625427674,1535.9980067498404
138,260.5051673,1333,48352,1333.5647693039225,47014.63784004077,1554,0.004700227567579064,0.004585898175014585,1556.1854855149309
139,261.03607132499997,1338,49200,1333.8305284377645,48008.978527259045,1579,0.005035309849149639,0.004878310635105449,1576.7580466148422
140,261.56687,1350,49891,1333.646696414389,48934.34374504425,1591,0.004964875054077996,0.005218836168768215,1598.6536501392702
141,262.097563325,1339,50777,1332.8788647534232,49788.757820108214,1602,0.005319794490068369,0.005637056646230382,1622.8872454641921
142,262.62815129999996,1323,52089,1332.2383519445261,50559.362998028424,1627,0.005988259858960722,0.006089314937312042,1648.543704274131
143,263.158633925,1327,52907,1331.7940610206092,51250.49790482132,1653,0.006320279177975959,0.006560915821146333,1675.4509275407954
144,263.6890112,1339,53287,1331.439556954832,51864.014700218715,1681,0.006583506583506584,0.007093503162673224,1704.8208566445117
145,264.219283125,1342,53377,1331.3889555822072,52388.73140954395,1722,0.007302776977034688,0.007667149697832791,1735.8893746177384
146,264.7494497,1334,53423,1331.0115291399322,52832.2816824833,1755,0.008082320643513986,0.0082785034736251,1768.0107590205557
147,265.27951092499995,1330,53901,1330.7893950032587,53215.34818455581,1797,0.008883224591504823,0.008915804003857846,1802.0282905614733
148,265.8094668,1336,54380,1330.9893995333728,53531.90323676538,1842,0.009539250433602292,0.009580985660099078,1838.2874810301128
149,266.33931732499997,1342,54680,1331.2466420530222,53763.798976193226,1877,0.010030372342420038,0.010276243802192137,1875.5816213277403
150,266.8690625,1333,54479,1331.888106185845,53905.73603026012,1914,0.010932149173973582,0.01099418350750144,1913.5414618677291
151,267.398702325,1326,54056,1332.844322634689,53974.741624950824,1951,0.011852835198179404,0.011738891301879353,1952.6119730910857
152,267.9282368,1326,53967,1333.753222043509,53984.726902080554,1990,0.012613742140156911,0.012518051272478733,1992.9838727943625
153,268.457665925,1335,53887,1334.338807220976,53931.226641598994,2027,0.013167909879738164,0.013348014148919805,2034.8170060476632
154,268.9869897,1338,53552,1334.3461460055462,53809.05354594565,2069,0.014000076607806335,0.014249845574629362,2078.3216833902975
