,x_(nm),baseline_dark,baseline_light,baseline_mirror,baseline_calibration,baseline_dark_smoothed,baseline_light_smoothed,raw_signal,calibrated_signal,calibrated_signal_smoothed,raw_signal_smoothed
0,186.23,1028,1028,0.3621226043733797,inf,1012.4500033201468,3780.9968189824235,1037,inf,,1249.222921034241
1,186.775442325,1024,1029,1.18800459154587,0.237600918309174,1019.523346329339,2839.072514553345,1024,0.0,,1172.078485127319
2,187.3207793,1030,1027,1.908567993433533,-0.6361893311445109,1026.170020673968,2015.177239249221,1012,11.451407960601196,,1105.0256893984808
3,187.86601092499998,1039,1029,1.7279185264672412,-0.17279185264672411,1032.4033433305588,1305.2735505684582,1020,3.2830452002877584,,1047.714387309511
4,188.41113719999998,1035,1043,1.043047789334166,0.13038097366677076,1038.2366312756353,705.3240060094627,1021,-1.8253336313347908,,999.7944323221944
5,188.956158125,1030,1042,0.840365554154959,0.07003046284624657,1043.6832014857223,211.29116307064123,1026,-0.2801218513849863,,960.9156778983156
6,189.50107369999998,1032,1028,0.8202728553565946,-0.20506821383914864,1048.7563709373444,-180.8624207496,1033,-0.20506821383914864,,930.7279774996591
7,190.045883925,1047,1042,0.837733819880384,-0.1675467639760768,1053.469456607026,-475.1741879528531,1043,0.6701870559043072,,908.8811845880098
8,190.59058879999998,1051,1062,0.8116271105193998,0.0737842827744909,1057.8357754712915,-675.6815810407129,1041,-0.737842827744909,,895.0251526251521
9,191.135188325,1055,1074,0.8262856362484797,0.043488717697288404,1061.8686445066658,-786.4220425147728,1040,-0.652330765459326,,888.8097350728708
10,191.67968249999998,1072,1084,0.8012221689422371,0.06676851407851976,1065.581380689673,-811.4330148766262,1051,-1.402138795648915,,889.8847853929506
11,192.22407132499998,1073,1077,0.7775424502505143,0.19438561256262857,1068.9873009968383,-754.7519406278648,1056,-3.3045554135646857,,897.9001570471758
12,192.7683548,1062,1063,0.7753865851703869,0.7753865851703869,1072.0997224046853,-620.4162622700837,1048,-10.855412192385417,,912.5057034973315
13,193.312532925,1056,1057,0.7956261498651602,0.7956261498651602,1074.9319618897391,-412.46342230487653,1047,-7.1606353487864425,,933.351278205202
14,193.8566057,1067,1067,0.7908861747409445,inf,1077.4973364285242,-134.93086323383568,1049,-inf,,960.0867346325722
15,194.400573125,1078,1080,0.7942231778648126,0.3971115889324063,1079.809162997565,208.14397244144357,1051,-10.722012901174969,,992.3619262412267
16,194.9444352,1086,1103,0.7947581770897779,0.04675048100528106,1081.8807585733862,612.7236422193678,1063,-1.0752610631214643,,1029.82670649295
17,195.488191925,1096,1127,0.7914877943554887,0.02553186433404802,1083.725440132512,1074.770703598349,1084,-0.3063823720085762,,1072.1309288495268
18,196.0318433,1113,1134,0.7911116722494277,0.03767198439282989,1085.356524651467,1590.2477140767846,1100,-0.4897357971067886,,1118.9244467727422
19,196.575389325,1102,1125,0.7900325230816138,0.03434924013398321,1086.787329106776,2155.117231153089,1095,-0.24044468093788246,,1169.8571137243803
20,197.11883,1085,1110,0.798472358442206,0.03193889433768824,1088.0311704749633,2765.3418123256643,1083,-0.06387778867537648,,1224.5787831662255
21,197.662165325,1096,1111,0.7981102791346143,0.05320735194230762,1089.1013657325534,3416.884015092919,1085,-0.5852808713653839,,1282.7393085600631
22,198.2053953,1097,1108,0.8040599544843242,0.07309635949857493,1090.0112318560712,4105.706396953261,1098,0.07309635949857493,,1343.9885433676777
23,198.74851992499998,1085,1093,0.8074165803696804,0.10092707254621006,1090.7740858220407,4827.771515405093,1095,1.0092707254621005,,1407.9763410508535
24,199.2915392,1089,1085,0.8060625325032217,-0.20151563312580542,1091.4032446069866,5579.041927946824,1093,-0.8060625325032217,,1474.3525550713757
25,199.83445312499998,1118,1102,0.8122546130835153,-0.05076591331771971,1091.9120251874126,6355.480192076708,1122,-0.20306365327087883,-inf,1542.7670388909987
26,200.3772617,1125,2065,0.8144257223941842,0.0008664103429725364,1093.310924369727,7045.36003080464,1201,0.06584718606591276,-inf,1604.2034247661022
27,200.919964925,1099,6050,0.8150182986479615,0.00016461690540253717,1093.9625359577585,7750.926113841615,1528,0.07062065241768845,-inf,1666.2133910167522
28,201.4625628,1083,10622,0.8232603193402961,8.630467757000693e-05,1094.3853541416356,8474.504473487345,1908,0.07120135899525572,-inf,1728.6449523205179
29,202.005055325,1075,12585,0.8194894939197722,7.119804464984989e-05,1095.4798749688343,9214.269020815696,2069,0.07077085638195078,-inf,1792.9682892024389
30,202.5474425,1076,13512,0.8269202298982968,6.64940680201268e-05,1096.398264966343,9966.181634917928,2144,0.07101566464549541,-inf,1858.2639470882336
31,203.089724325,1077,14170,0.8298864771900701,6.338398206599482e-05,1096.46945570679,10730.104464427073,2212,0.07194081964490412,-inf,1924.6505470112206
32,203.63190079999998,1084,14833,0.8293789756785952,6.032285807539422e-05,1095.766042265942,11508.608847312289,2280,0.0721461382581715,-inf,1992.071847606929
33,204.173971925,1088,15342,0.8303112569560028,5.8251105440999216e-05,1095.5908174590381,12299.471290402718,2325,0.07205661743051603,-inf,2060.747627352788
34,204.71593769999998,1096,15652,0.832804584655424,5.721383516456609e-05,1095.8489433509042,13091.981018822373,2352,0.07186057696669501,inf,2129.594962513266
35,205.257798125,1092,15941,0.8371769300637781,5.637934743509854e-05,1096.3985820743183,13880.800040770759,2366,0.07182728863231554,inf,2197.2052141610943
36,205.7995532,1081,16396,0.8381556767340916,5.472776211126945e-05,1097.2423384447907,14661.842578540567,2411,0.07278792360798837,inf,2264.1379193186276
37,206.34120292499998,1087,17002,0.840625124319978,5.2819674792332895e-05,1097.810641237606,15436.275498878502,2479,0.0735249873109274,inf,2330.870189585223
38,206.88274729999998,1091,17606,0.8415937915656597,5.095935764854131e-05,1097.6797209449608,16200.98240050706,2524,0.0730247595103597,inf,2396.693039479897
39,207.424186325,1086,17952,0.8431564976534377,4.999149161943779e-05,1096.5960270900603,16945.52682959944,2537,0.07253765433980423,inf,2460.705338739222
40,207.96552,1086,18212,0.844165982526256,4.929148560821301e-05,1095.4651973996938,17671.51582142257,2552,0.07226131790164027,0.3882200876802039,2522.7206052231727
41,208.506748325,1093,18575,0.8476484869242688,4.848692866515666e-05,1094.837233006389,18381.674420711326,2588,0.0724879583544092,0.11765608596045987,2582.8393621599084
42,209.0478713,1113,19019,0.8491768105118729,4.742414891722735e-05,1094.192439239826,19072.02788285089,2647,0.07274864443902676,0.09820721052890813,2641.37570499893
43,209.588888925,1114,19568,0.8502736512177026,4.607530352323088e-05,1093.5950078144256,19736.24138712051,2700,0.07307543138784417,0.09758718077655609,2698.4360914176473
44,210.12980119999997,1105,20010,0.8513731200582484,4.5034282996998065e-05,1093.8330426510017,20371.079911209374,2717,0.07259526419116089,0.08926503163204197,2753.4769756958867
45,210.670608125,1102,20453,0.8534308197221572,4.4102672715733405e-05,1093.8954449704202,20963.70794355438,2741,0.07228428058108705,0.08607756024564693,2804.644363405686
46,211.2113097,1102,20852,0.8557212941711507,4.332766046436206e-05,1093.5948266098685,21508.97560533606,2781,0.0727471419196639,0.08703955138500376,2851.5409182540393
47,211.751905925,1099,21053,0.8575135521308375,4.297451900024243e-05,1093.7112278873606,22005.36458356885,2804,0.07327155489541334,0.07050449979599985,2893.886928356192
48,212.29239679999998,1095,21366,0.8580327959771828,4.232809412348591e-05,1093.6653378332255,22444.22088835491,2838,0.07377786805723593,0.0715641705895305,2931.5006228906095
49,212.83278232499998,1101,21820,0.8587529108532552,4.1447604172655784e-05,1093.1581689279276,22829.362069355608,2873,0.07344515459394604,0.10302591738253769,2964.4236789054676
50,213.37306249999997,1100,22289,0.8598387128136875,4.05794852429887e-05,1092.6017123830457,23160.95782463885,2914,0.0736111862307815,0.08132873555536944,2992.8346055402717
51,213.91323732499998,1088,22843,0.8611437003932625,3.9583714106792115e-05,1092.2973113773603,23432.373190785296,2957,0.07398196166559447,0.07416229690739144,3016.142675938242
52,214.45330679999998,1101,23497,0.8624756676121401,3.8510254849622256e-05,1092.6211239212457,23675.121565606914,3021,0.07393968931127473,0.07410454758631631,3036.5642709913573
53,214.993270925,1108,24011,0.8630074298534857,3.768097759479045e-05,1091.8620580307386,23990.98341978255,3086,0.0745329736824955,0.07417618585671394,3062.959999093918
54,215.5331297,1087,24514,0.8629495266956824,3.6835682191304154e-05,1090.3915377471535,24415.380778726118,3114,0.07466592780177352,0.07426505344973784,3098.512967451072
55,216.07288312499998,1079,25093,0.8648478670709356,3.601431944161471e-05,1089.8272441051683,24879.726766177697,3158,0.07487377011911699,0.07431923820059755,3137.9088314570504
56,216.61253119999998,1092,25583,0.8650803831098881,3.5322378960021565e-05,1090.1113048992975,25352.834492287,3194,0.07424764057396532,0.07435614631551463,3178.1349747445543
57,217.152073925,1112,25858,0.8652291434094919,3.4964404081851285e-05,1090.656141701943,25833.879951980292,3225,0.07387978582495176,0.07440626957194993,3219.4247661328072
58,217.69151129999997,1103,26096,0.8680312398394996,3.473097426637457e-05,1091.3771093342787,26328.69976669863,3241,0.07425482298150883,0.07444776641198973,3261.9892862804872
59,218.230843325,1085,26585,0.868212549145114,3.404755094686722e-05,1092.1942965865383,26838.724772927526,3270,0.07439389881890487,0.07446285132981721,3305.1742055312056
60,218.77006999999998,1069,27158,0.868144571802742,3.3276268611397215e-05,1093.212530295116,27355.15006002349,3340,0.07557040601648307,0.07445044178063939,3348.3589435773665
61,219.30919132499997,1066,27787,0.8681762475955156,3.249041007430544e-05,1093.7563931232662,27872.370450066286,3399,0.07580012670335459,0.0744219207006099,3390.741738204651
62,219.84820729999998,1068,28263,0.868951283960652,3.195261202282228e-05,1093.6825069650292,28394.190151531766,3428,0.07540816437386058,0.07441556927996369,3433.5053795102294
63,220.38711792499998,1072,28718,0.8691522224557424,3.143862484466984e-05,1093.9689007678332,28929.02140478778,3455,0.07491824300484823,0.07441382299072093,3477.4962966317935
64,220.9259232,1090,29435,0.8692686507714266,3.066744225688575e-05,1094.2089062039702,29482.74108133763,3508,0.07415387537714975,0.0743813770706906,3522.26002853965
65,221.464623125,1097,30024,0.8701622824311823,3.0081317884024695e-05,1094.226732202294,30046.178124079244,3562,0.07415044858412087,0.07432324140683776,3567.0342250106905
66,222.0032177,1087,30398,0.86932404321908,2.9658627928732556e-05,1093.9904188090122,30611.092957937304,3603,0.07462110786869111,0.07423858292955819,3610.9864323087036
67,222.54170692499997,1093,30768,0.8705973257298546,2.9337736334620207e-05,1093.9415162291123,31173.350834672892,3632,0.0744885125536007,0.07414361380553566,3654.4486624837914
68,223.0800908,1102,31210,0.8704844215444587,2.8912063954578806e-05,1094.638179800201,31734.76271263162,3655,0.0738124992760397,0.07404295668984187,3698.3611406826167
69,223.61836932499997,1094,31598,0.8703398065724872,2.8531989462774954e-05,1095.2063919907378,32297.39072232605,3680,0.07378372475073602,0.073938660684578,3742.1082244217723
70,224.1565425,1092,32275,0.8697053263836744,2.7890367391965956e-05,1095.5872160184617,32859.221364016674,3736,0.07374213138435799,0.07380354001099702,3784.7427121791384
71,224.69461032499999,1087,33018,0.8700422735223692,2.7247573628209865e-05,1096.027996104081,33420.62662800906,3787,0.07356844879616664,0.07363883453233105,3826.512559740804
72,225.23257279999999,1082,33724,0.8700397124616915,2.6653995235025167e-05,1096.4244716754415,33978.35180864734,3851,0.07380491280578469,0.07347333677103422,3867.73313098817
73,225.77042992499997,1088,34626,0.8700678242154535,2.5942746264400187e-05,1097.035765249475,34523.93324877055,3926,0.07362551389836773,0.07330439272901661,3907.7678543114616
74,226.30818169999998,1091,35280,0.8699872642519537,2.5446408618326177e-05,1097.6159822419324,35057.76203311446,3975,0.0733874424552527,0.07313599415571415,3946.6726766177408
75,226.84582812499997,1096,35784,0.8700242014773532,2.5081417247386794e-05,1098.0331830845337,35588.06969580217,4004,0.0729367613554008,0.07295179059342259,3984.7641169674653
76,227.3833692,1122,36380,0.8696880407569096,2.4666403107292237e-05,1098.2011823597154,36110.21570137419,4074,0.07281522197272668,0.07276776518051624,4021.9300550408066
77,227.92080492499997,1119,36777,0.87010037851645,2.4401266995245105e-05,1097.7173888423083,36618.3234954352,4118,0.07317939971874007,0.0726000004088447,4057.9305986544787
78,228.45813529999998,1141,37030,0.8693067287349536,2.4222093921116597e-05,1097.3750254818697,37115.769168043866,4133,0.07247250501198085,0.07242789465557714,4092.998618315172
79,228.99536032499998,1160,37323,0.8691277262341458,2.4033617958525173e-05,1097.3209132709478,37593.580896508836,4145,0.07174034960619764,0.0722784568571281,4127.420870234808
80,229.53248,1128,37844,0.86926662631248,2.367541742870901e-05,1096.8027361887941,38043.05526738925,4156,0.07168916397413089,0.07214212722636922,4159.639448232043
81,230.069494325,1100,38599,0.8686441253792921,2.3164461062409453e-05,1096.0217445468543,38476.71922353773,4195,0.07169400698815726,0.07201796214321524,4190.749122290345
82,230.60640329999998,1088,39209,0.868302707705708,2.2777542763980694e-05,1095.9552877754666,38887.97784774213,4224,0.07143037410784346,0.07187044767648677,4219.848852748565
83,231.143206925,1084,39668,0.8687016218294412,2.251455582182877e-05,1096.5397404244507,39253.812407981306,4249,0.07125856917608805,0.07171500734485961,4245.5595370222745
84,231.67990519999998,1080,39918,0.8683284847277679,2.2357703402022964e-05,1096.7601078166906,39571.83052843703,4274,0.07141050466606134,0.07157759658901117,4267.479580511367
85,232.216498125,1077,40212,0.8683608504247778,2.2188855255520066e-05,1096.5988810618378,39859.40302158523,4299,0.07149249163328565,0.07145651282430078,4287.091983963314
86,232.75298569999998,1086,40613,0.868249886800152,2.1965995061607307e-05,1095.7973906543539,40122.657455434244,4333,0.07132358596503893,0.07138880821570841,4305.975627986961
87,233.289367925,1093,41013,0.867778574191436,2.173794023525641e-05,1094.7147387256578,40354.628530656766,4354,0.07088742310717115,0.0713472408048902,4323.078212416959
88,233.8256448,1083,41257,0.8676471171202086,2.1597229977602642e-05,1093.6259031914442,40543.942671407414,4369,0.07096849770640228,0.07131327331506859,4336.94482321222
89,234.36181632499998,1085,41256,0.8677489292852631,2.160137734398604e-05,1092.7368456816478,40685.50406577648,4375,0.07106853146171407,0.07127533813097382,4346.856757797375
90,234.89788249999998,1084,41215,0.8672589311593729,2.1610698242240985e-05,1092.196584294074,40801.308772564844,4366,0.07092631163103491,0.0712203363086854,4354.480373281304
91,235.433843325,1089,41247,0.8668004592010585,2.1584751710768927e-05,1091.4068268816752,40895.78001766667,4376,0.07094907887329746,0.0711819654855108,4360.754422523643
92,235.9696988,1087,41427,0.8665578153052318,2.148135387469588e-05,1090.2777865863118,40952.60626514679,4389,0.0709314304942458,0.07117177008947163,4364.684545516236
93,236.505448925,1081,41561,0.8666098942893835,2.1408347190943268e-05,1088.974699313667,40966.47251353293,4390,0.07084022085483127,0.07118075795056021,4365.525787673477
94,237.04109369999998,1088,41679,0.8664654382940954,2.1346245184747737e-05,1087.503023851029,40942.8267231413,4405,0.07080549527780824,0.07119851159683098,4363.686334911239
95,237.576633125,1087,41699,0.8658853313998153,2.1320923160637627e-05,1085.9951074769322,40880.06885773099,4412,0.07089206950912011,0.07123201754146168,4359.300120047936
96,238.11206719999998,1082,41622,0.8659634438688039,2.1360716424982827e-05,1084.8475843167248,40783.8327708434,4409,0.07106710354591787,0.07126744054413386,4352.566196289754
97,238.64739592499998,1083,41513,0.8653764850454776,2.140431573201775e-05,1083.718566671931,40666.80391401766,4404,0.07108373254603095,0.07130610629238585,4344.081881809244
98,239.1826193,1071,41368,0.865240351462597,2.1471582288075963e-05,1082.4078235067404,40541.115880313606,4396,0.07139301110785258,0.07138499221878444,4336.637319078492
99,239.71773732499997,1064,41184,0.8654717432609225,2.1572077349474637e-05,1081.153140501463,40422.67929058338,4389,0.07172715718700316,0.0714915720480993,4331.395796054188
100,240.25275,1072,40722,0.8654328986505,2.182680702775536e-05,1079.6873315363675,40303.75560035257,4364,0.07185384873537065,0.07161271684183551,4326.627126322143
101,240.787657325,1078,40290,0.8649750843904328,2.2058938192146097e-05,1078.465537158239,40181.755623003155,4340,0.07195625638278057,0.0717295957474463,4321.681465038763
102,241.3224593,1087,40037,0.8650023747478218,2.220801989082983e-05,1078.3962490656434,40072.44241092587,4319,0.07177632028716201,0.07184180275744263,4318.573331219197
103,241.85715592499997,1096,39698,0.864426750181391,2.2393315117905576e-05,1078.6909556275132,39968.54275294948,4308,0.07192732815871271,0.07195594861607657,4316.1454846088545
104,242.3917472,1097,39456,0.8640504083213235,2.2525363234738222e-05,1079.548642098328,39862.710593670665,4288,0.07187843408204966,0.07204655664856773,4313.165213255031
105,242.92623312499998,1094,39455,0.8638615542876957,2.2519265772208642e-05,1081.003510838277,39764.84033613369,4281,0.07176890001602894,0.07210895802032646,4310.241409771373
106,243.46061369999998,1094,39058,0.8647030136247108,2.27769205991126e-05,1082.036535368844,39691.085936260526,4247,0.07181563064900202,0.07216587538345216,4308.628009694361
107,243.994888925,1081,38721,0.863747888775786,2.2947605971726515e-05,1082.054270764889,39641.04525583743,4230,0.0722620112049668,0.07223562622354862,4308.838614691077
108,244.52905879999997,1079,38908,0.8628771528607923,2.2809938218319073e-05,1081.748714580151,39611.00303517558,4254,0.07242155384316305,0.07229642060441346,4310.236200140351
109,245.063123325,1084,39129,0.8633129275796555,2.2691889277951255e-05,1081.5043602346393,39605.40472037796,4278,0.0724778943537763,0.07233498934364961,4312.587533126375
110,245.59708249999997,1078,38992,0.8623491049005171,2.2744872735678564e-05,1080.6535142358623,39628.818161226,4262,0.07241967479040054,0.07236400149478509,4316.2608666107135
111,246.130936325,1079,38698,0.862505803534046,2.2927398483055e-05,1079.4614600556997,39699.15554146111,4231,0.07226716001858936,0.07237821164384194,4322.613671883765
112,246.66468479999997,1079,38696,0.8631762817630669,2.2946441283543794e-05,1078.4380620172392,39822.11039887577,4227,0.07223539716059586,0.07237239487607598,4332.342748420039
113,247.19832792499997,1074,38978,0.8629529675416884,2.2766804757853745e-05,1077.9313461233344,39994.06894833328,4246,0.07221630469191208,0.07233335422482268,4344.932297447197
114,247.7318657,1063,39499,0.8621360146885437,2.2430430187546667e-05,1077.431765158873,40211.01118938064,4293,0.07245028950577574,0.07227786392749871,4360.312781716377
115,248.265298125,1062,39633,0.8624878814902607,2.2361045383585095e-05,1077.3711975355973,40465.94776778558,4318,0.07280756376895307,0.07220547212981622,4378.27973453524
116,248.79862519999998,1074,39543,0.862427427307537,2.241876386980522e-05,1077.6052911730524,40750.813676413185,4319,0.07274888875751793,0.07210939505840092,4397.760311671755
117,249.33184692499998,1073,39831,0.8621956715984717,2.2245618236195668e-05,1077.813291354257,41058.25561167784,4347,0.07283215410530462,0.07199589734602205,4418.301977394647
118,249.8649633,1083,40377,0.8614594306460737,2.1923434383012002e-05,1078.1579424222311,41405.14582436669,4397,0.07265426154530177,0.07185824962077408,4440.853360211924
119,250.397974325,1100,40923,0.861591555373828,2.1635526087281925e-05,1078.5770685632538,41798.975469432255,4435,0.07215447950108522,0.07168592827127608,4465.201340913639
