,x_(nm),baseline_dark,baseline_light,baseline_mirror,baseline_calibration,baseline_dark_smoothed,baseline_light_smoothed,raw_signal,calibrated_signal,calibrated_signal_smoothed,raw_signal_smoothed
0,186.23,1086,1095,0.3621226043733797,0.04023584493037552,1076.6878175879272,3785.7999816601573,1078,-0.32188675944300416,,1301.9771700326635
1,186.775442325,1087,1080,1.18800459154587,-0.16971494164940998,1082.8046298667819,2856.9359805977074,1076,1.8668643581435098,,1225.9468257807875
2,187.3207793,1097,1073,1.908567993433533,-0.07952366639306387,1088.5816868918173,2044.436801845411,1082,1.192854995895958,,1159.8099972128825
3,187.86601092499998,1094,1068,1.7279185264672412,-0.06645840486412466,1094.0281898987612,1344.3249279069928,1089,0.3322920243206233,,1103.221635866086
4,188.41113719999998,1088,1067,1.043047789334166,-0.049668942349246,1099.1533401233407,752.6228412861792,1086,0.099337884698492,,1055.8366932775364
5,188.956158125,1082,1075,0.840365554154959,-0.12005222202213699,1103.9663388012832,265.3530244866952,1082,-0.0,,1017.3101209843715
6,189.50107369999998,1089,1079,0.8202728553565946,-0.08202728553565945,1108.476387168316,-121.46203998773308,1074,1.2304092830348918,,987.2968705237292
7,190.045883925,1117,1092,0.837733819880384,-0.03350935279521536,1112.6926864601662,-411.79986963338024,1093,0.8042244670851686,,965.4518934327476
8,190.59058879999998,1131,1105,0.8116271105193998,-0.031216427327669223,1116.6244379125615,-609.6379819465214,1108,0.7179778285363921,,951.4301412485648
9,191.135188325,1134,1106,0.8262856362484797,-0.02951020129458856,1120.280842761229,-718.9538944234305,1103,0.9148162401322454,,944.8865655083188
10,191.67968249999998,1138,1118,0.8012221689422371,-0.04006110844711185,1123.671102241896,-743.7251245603834,1107,1.2418943618604674,,945.4761177491473
11,192.22407132499998,1124,1116,0.7775424502505143,-0.09719280628131428,1126.8044175902899,-687.9291898536517,1100,2.332627350751543,,952.8537495081887
12,192.7683548,1119,1107,0.7753865851703869,-0.06461554876419891,1129.6899900421379,-555.5436077995105,1090,1.8738509141617683,,966.6744123225806
13,193.312532925,1123,1105,0.7956261498651602,-0.04420145277028668,1132.3370208331673,-350.54589589423585,1083,1.768058110811467,,986.5930577294614
14,193.8566057,1131,1115,0.7908861747409445,-0.04943038592130903,1134.7547111991057,-76.91357163410203,1094,1.8289242790884341,,1012.2646372659689
15,194.400573125,1141,1124,0.7942231778648126,-0.04671901046263603,1136.9522623756802,261.37584748461904,1107,1.5884463557296251,,1043.3441024692409
16,194.9444352,1134,1133,0.7947581770897779,-0.7947581770897779,1138.938875598618,660.3448439656499,1122,9.537098125077335,,1079.4864048764157
17,195.488191925,1135,1135,0.7914877943554887,inf,1140.7237521036468,1116.015900312716,1138,inf,,1120.346496024631
18,196.0318433,1149,1133,0.7911116722494277,-0.04944447951558923,1142.3160931264936,1624.4114990295448,1149,-0.0,,1165.5793274510252
19,196.575389325,1153,1132,0.7900325230816138,-0.0376205963372197,1143.7250999028859,2181.554122619864,1138,0.5643089450582955,,1214.8398506927363
20,197.11883,1140,1133,0.798472358442206,-0.114067479777458,1144.9599736685507,2783.4662535873945,1122,2.053214635994244,,1267.7830172869017
21,197.662165325,1138,1139,0.7981102791346143,0.7981102791346143,1146.0299156592157,3426.1703744358647,1123,-11.971654187019215,,1324.0637787706598
22,198.2053953,1145,1138,0.8040599544843242,-0.1148657077834749,1146.944127110608,4105.688967668995,1132,1.4932542011851737,,1383.3370866811488
23,198.74851992499998,1137,1132,0.8074165803696804,-0.1614833160739361,1147.711809258455,4818.0445157905215,1124,2.099283108961169,,1445.257892555506
24,199.2915392,1149,1135,0.8060625325032217,-0.05757589517880155,1148.3421633384842,5559.2595013041555,1129,1.151517903576031,,1509.4811479308703
25,199.83445312499998,1175,1149,0.8122546130835153,-0.031240562041673667,1148.844390586401,6325.3564067135085,1154,0.656051802875147,inf,1575.6618043443489
26,200.3772617,1172,2115,0.8144257223941842,0.0008636540004180108,1149.3183764071446,7007.61591429011,1237,0.056137510027170705,inf,1634.5975673287871
27,200.919964925,1152,6078,0.8150182986479615,0.00016545235457733688,1149.47072413869,7705.634306552663,1568,0.06882817950417214,inf,1694.5797639810316
28,201.4625628,1141,10631,0.8232603193402961,8.67502970853842e-05,1149.4303608235527,8419.593286370991,1935,0.06887973588579506,inf,1755.5255158666903
29,202.005055325,1139,12572,0.8194894939197722,7.167755566515983e-05,1149.5306122448758,9149.270832861272,2103,0.06909716366121407,inf,1818.2392126661637
30,202.5474425,1148,13419,0.8269202298982968,6.73881696600356e-05,1149.4179256608084,9891.868989104885,2177,0.06934242658017663,inf,1881.494122177137
31,203.089724325,1153,14041,0.8298864771900701,6.439218476024752e-05,1148.8264513352292,10646.374889578268,2242,0.07012308920390956,inf,1944.904006885736
32,203.63190079999998,1156,14671,0.8293789756785952,6.136729379789828e-05,1148.4830686991559,11414.721579197498,2301,0.07026555139859353,inf,2008.6670592765022
33,204.173971925,1149,15153,0.8303112569560028,5.9291006637817966e-05,1149.138304378333,12195.037509343128,2344,0.07085275293219247,inf,2074.0834220480247
34,204.71593769999998,1152,15506,0.832804584655424,5.8018990152948584e-05,1150.1166051325972,12978.503273007067,2369,0.07060911101613843,inf,2140.5130807039386
35,205.257798125,1157,15791,0.8371769300637781,5.720766229764782e-05,1150.8530431040122,13758.841717818941,2378,0.06985055566542799,inf,2206.2555890280214
36,205.7995532,1146,16205,0.8381556767340916,5.565812316449244e-05,1151.6180207932007,14530.979342680188,2399,0.06973962832510903,inf,2271.411787356409
37,206.34120292499998,1148,16810,0.840625124319978,5.367291050440416e-05,1151.8993861695403,15295.87773222467,2455,0.07015049402925624,-inf,2336.0203628620816
38,206.88274729999998,1147,17418,0.8415937915656597,5.172354443891953e-05,1151.6491200253465,16051.981902194533,2516,0.07080953233688084,-inf,2399.2132324627505
39,207.424186325,1129,17748,0.8431564976534377,5.07344905020421e-05,1151.1071371944784,16789.570341343762,2546,0.07189077304139366,-inf,2459.534644046251
40,207.96552,1125,18036,0.844165982526256,4.991815874438271e-05,1150.7601984189685,17507.8792498128,2569,0.07208182122688864,-inf,2517.8082402771943
41,208.506748325,1136,18394,0.8476484869242688,4.91162641629545e-05,1150.7525651769922,18208.713470293427,2585,0.07116946677212108,-inf,2574.9590704205716
42,209.0478713,1161,18812,0.8491768105118729,4.810927485762126e-05,1150.3496794944174,18887.66692337276,2605,0.0694697928944051,-inf,2630.1850325035175
43,209.588888925,1163,19343,0.8502736512177026,4.6769727789752616e-05,1149.8660671815676,19540.462116921866,2646,0.06935950631220313,0.15648030937906995,2683.4074384470255
44,210.12980119999997,1149,19770,0.8513731200582484,4.57211277621099e-05,1149.8606989965576,20164.669709392805,2680,0.06999904660379025,0.17921396419270252,2734.832725542995
45,210.670608125,1139,20235,0.8534308197221572,4.4691601367938685e-05,1150.1442841287237,20747.38243221777,2723,0.07079149656681488,0.2208461073763587,2782.59122516926
46,211.2113097,1142,20660,0.8557212941711507,4.3842673131014996e-05,1149.9352646718844,21283.5412806628,2766,0.07120050116476835,0.31472154705346017,2826.0755396497675
47,211.751905925,1146,20863,0.8575135521308375,4.3491076336706264e-05,1149.331355183561,21772.438243221397,2794,0.07167329380289192,-0.03297468765003994,2864.8772339123775
48,212.29239679999998,1151,21186,0.8580327959771828,4.2826693085958715e-05,1148.893564973137,22205.136786789764,2825,0.07169188422589488,-0.01495500374086272,2898.678543115304
49,212.83278232499998,1148,21655,0.8587529108532552,4.187608674370972e-05,1148.1672971075,22585.2772656228,2843,0.07097996703058797,0.030086227882107422,2927.466194024724
50,213.37306249999997,1149,22094,0.8598387128136875,4.105221832483588e-05,1148.0107816711368,22914.23076400327,2878,0.07097928548364123,0.05573592936364641,2951.5405105437835
51,213.91323732499998,1155,22605,0.8611437003932625,4.0146559458893354e-05,1148.0588461799593,23184.249813132352,2913,0.07057765152873452,0.07143010959118654,2970.262791909159
52,214.45330679999998,1161,23226,0.8624756676121401,3.9087952305104925e-05,1147.746358920905,23428.483544360693,2962,0.07039740210149396,0.07105593662534165,2986.1486330380635
53,214.993270925,1174,23793,0.8630074298534857,3.8154093012665706e-05,1146.5426396973664,23746.46644318059,3018,0.07035614751535556,0.07100724159801673,3007.6036376814304
54,215.5331297,1163,24299,0.8629495266956824,3.729899406533897e-05,1144.50490384831,24170.76235022264,3042,0.07008480984877193,0.07094838499331066,3036.9612222246806
55,216.07288312499998,1158,24826,0.8648478670709356,3.6540808985589644e-05,1143.2454415728337,24636.34798070124,3090,0.0705968429601592,0.07087961912376005,3070.467779564597
56,216.61253119999998,1160,25314,0.8650803831098881,3.5815201751672106e-05,1143.0277469478137,25109.744275068035,3144,0.07105736027531746,0.07080683175032168,3105.3627715236444
57,217.152073925,1149,25626,0.8652291434094919,3.5348659697246064e-05,1143.5287548981637,25589.83487734668,3179,0.07175777918540951,0.07073727341825016,3141.201137058537
58,217.69151129999997,1134,25879,0.8680312398394996,3.5079055964417034e-05,1144.0696958028275,26081.29128632535,3186,0.07198222283898376,0.0706580513913494,3177.8361231284357
59,218.230843325,1130,26310,0.868212549145114,3.4480244207510484e-05,1144.1900609300105,26585.385308840006,3200,0.0713741055095467,0.07057915312172411,3214.8129515956707
60,218.77006999999998,1136,26844,0.868144571802742,3.376943254250591e-05,1144.3978346055187,27099.602731658182,3242,0.07111842493451745,0.07047324915939963,3251.7736075561675
61,219.30919132499997,1135,27479,0.8681762475955156,3.29553692527906e-05,1144.6136492332564,27615.16974336852,3281,0.07072222241648864,0.07033657006242078,3288.147545810714
62,219.84820729999998,1132,27977,0.868951283960652,3.236920409613157e-05,1144.487281705113,28134.056852929312,3296,0.07004695766402871,0.07018145552218871,3323.9784140070483
63,220.38711792499998,1138,28404,0.8691522224557424,3.187677776189182e-05,1144.6234342793502,28666.2396203759,3323,0.06965075940973363,0.07002392104187918,3360.8713900653956
64,220.9259232,1146,29063,0.8692686507714266,3.113760972781554e-05,1144.8938367799733,29215.487712065395,3393,0.06996620905840152,0.06987758698186343,3399.439353099665
65,221.464623125,1143,29670,0.8701622824311823,3.0503112224600634e-05,1144.4076876033214,29774.24723096729,3448,0.07030967367770447,0.0697552263789759,3438.27087816252
66,222.0032177,1138,30099,0.86932404321908,3.001705891437036e-05,1143.4260345647472,30334.40863892669,3465,0.06984969609373982,0.06962354940710141,3476.070352669303
67,222.54170692499997,1141,30542,0.8705973257298546,2.9611146754527213e-05,1142.5302724863311,30891.972615460687,3501,0.06988230634068422,0.06946359725585968,3512.968878117217
68,223.0800908,1141,30985,0.8704844215444587,2.9167820049070455e-05,1142.3935536478523,31450.95080296209,3532,0.06974025773732746,0.06925005897505063,3549.5931731182363
69,223.61836932499997,1136,31357,0.8703398065724872,2.8799172978143914e-05,1142.627534032459,32011.234161588553,3539,0.06920441266647982,0.06900645316059342,3585.5942603455787
70,224.1565425,1128,32038,0.8697053263836744,2.8136697715421364e-05,1142.4147319304861,32570.03959319514,3573,0.06879422591420524,0.06877149129345161,3621.148768941469
71,224.69461032499999,1128,32796,0.8700422735223692,2.7473862369659253e-05,1141.4945978391138,33126.90346327146,3608,0.06813517867675495,0.06856175554385115,3656.565063761284
72,225.23257279999999,1135,33482,0.8700397124616915,2.6897075848198954e-05,1140.6247933135298,33677.96767763644,3662,0.06796891066839876,0.0683584582478503,3691.466443180975
73,225.77042992499997,1133,34370,0.8700678242154535,2.6177688245493078e-05,1140.10034202358,34216.31420870169,3728,0.06793110099705453,0.06816816498843525,3725.8066320867256
74,226.30818169999998,1131,35025,0.8699872642519537,2.5667884116715456e-05,1140.0395931957469,34743.591338421495,3768,0.06768621041577866,0.0679758774853449,3759.519468164552
75,226.84582812499997,1119,35492,0.8700242014773532,2.5311267607638356e-05,1139.7495979523667,35268.87691680378,3797,0.06778357465325552,0.06776756288988957,3792.519807923097
76,227.3833692,1138,36073,0.8696880407569096,2.489446230877085e-05,1139.0719835103632,35785.85945321456,3859,0.06773783194216548,0.06757391858793435,3825.0672042401134
77,227.92080492499997,1153,36400,0.87010037851645,2.4685799600432658e-05,1138.6037735848838,36287.777435501805,3893,0.06763909090518548,0.0673686774229729,3856.30517112498
78,228.45813529999998,1170,36626,0.8693067287349536,2.4517901870909116e-05,1138.495118802216,36778.441640806566,3916,0.06732615853751643,0.06714923369654772,3886.399103037366
79,228.99536032499998,1195,36996,0.8691277262341458,2.427663267043227e-05,1139.181906724932,37251.10641237556,3952,0.06693067627238178,0.0669333677243109,3916.0054587872137
80,229.53248,1173,37472,0.86926662631248,2.394739872482658e-05,1139.9139731364025,37695.20924596181,3957,0.0666695580499172,0.06672682508747572,3944.033183084479
81,230.069494325,1149,38186,0.8686441253792921,2.3453414838655727e-05,1140.4550499444842,38120.19083104867,3973,0.06623244350436377,0.06655614478460219,3971.7335613489918
82,230.60640329999998,1129,38796,0.868302707705708,2.3052080274662384e-05,1141.2896781353834,38520.76407166567,3999,0.06615947038828104,0.06641224476385475,3998.6478515933904
83,231.143206925,1129,39297,0.8687016218294412,2.2759946076017637e-05,1141.9727060635355,38877.46757570878,4028,0.06598108367437513,0.06630359499425006,4023.0545878728085
84,231.67990519999998,1135,39606,0.8683284847277679,2.2570988139839564e-05,1141.6889170762427,39189.08903938859,4059,0.06599756932089089,0.06622632326086775,4044.0344062152385
85,232.216498125,1134,39816,0.8683608504247778,2.244870612752127e-05,1140.8992502661222,39470.205191509805,4083,0.06620123437006023,0.0661670434013384,4063.001517588089
86,232.75298569999998,1139,40188,0.868249886800152,2.2234881477122384e-05,1140.0961290176228,39725.27008539189,4105,0.06594865846114499,0.06613124798775738,4081.017237083434
87,233.289367925,1140,40578,0.867778574191436,2.2003615147609818e-05,1139.090239869511,39947.917053613135,4132,0.06583481652164858,0.06611129752014822,4097.174409386318
88,233.8256448,1132,40793,0.8676471171202086,2.1876581960117207e-05,1138.244286393781,40126.23089990636,4137,0.0657391287901522,0.06609463811830839,4110.271942739281
89,234.36181632499998,1124,40844,0.8677489292852631,2.1846649780595748e-05,1137.9143128949477,40252.37457246973,4124,0.06553994934178724,0.06608413654837367,4120.026727672122
90,234.89788249999998,1127,40784,0.8672589311593729,2.1868999953586325e-05,1137.6710910779188,40349.89395003207,4123,0.06551952386094463,0.06609810581949434,4128.600942263619
91,235.433843325,1134,40840,0.8668004592010585,2.1830465400721768e-05,1136.934721058213,40426.06720423942,4155,0.06594983597558046,0.06615855742637469,4136.872454642155
92,235.9696988,1138,41012,0.8665578153052318,2.1732402450349394e-05,1135.9991845794702,40466.09300323826,4172,0.06593610903436006,0.06623487229668916,4142.956828014146
93,236.505448925,1137,41029,0.8666098942893835,2.1723901892343918e-05,1135.0327753742788,40465.23486375604,4164,0.06575825102812503,0.06633649885505896,4146.679494439206
94,237.04109369999998,1128,41093,0.8664654382940954,2.168060648802941e-05,1133.697003329612,40427.40637386953,4184,0.06625593342741788,0.06645481063665082,4147.906792905762
95,237.576633125,1129,41079,0.8658853313998153,2.1674226067579857e-05,1132.2701986454742,40350.221590522226,4189,0.06632313176679436,0.06658245098387901,4146.530181883994
96,238.11206719999998,1142,41037,0.8659634438688039,2.1706064516074793e-05,1131.016149856147,40238.38050691898,4189,0.0661383785804799,0.06670611675606682,4142.518698045176
97,238.64739592499998,1143,41006,0.8653764850454776,2.1708764645046224e-05,1130.1644431357229,40105.97311377304,4200,0.06636369351990631,0.06682126796950492,4136.833110602652
98,239.1826193,1135,40877,0.865240351462597,2.1771434539343692e-05,1129.5445196946487,39964.06885773101,4194,0.06659881825585236,0.06697407768755521,4132.5479172800415
99,239.71773732499997,1123,40678,0.8654717432609225,2.1880210928098152e-05,1129.1115087544235,39828.77129719737,4187,0.06704096628369274,0.06714339820468955,4129.898751953532
100,240.25275,1126,40177,0.8654328986505,2.2161606582430667e-05,1128.4562730752464,39694.09248227516,4161,0.06726047597767708,0.06730588135987924,4126.746766631101
101,240.787657325,1140,39712,0.8649750843904328,2.2424947744229824e-05,1127.3188294185381,39556.41475458031,4133,0.06711786859847986,0.0674728369004569,4123.025821649336
102,241.3224593,1141,39433,0.8650023747478218,2.25896368627343e-05,1126.935377924733,39431.270810210124,4128,0.06747524530898735,0.0676460636339627,4121.2464834989805
103,241.85715592499997,1138,39052,0.864426750181391,2.2799671630041438e-05,1127.050057758931,39310.53253754257,4130,0.06821661751708398,0.06782622478717201,4120.599764433996
104,242.3917472,1128,38776,0.8640504083213235,2.2950765201905107e-05,1127.7025753697487,39186.12609572056,4117,0.06859983718849437,0.06799825142791104,4119.9406102062685
105,242.92623312499998,1118,38758,0.8638615542876957,2.295062577810031e-05,1129.13853088403,39070.72339124254,4106,0.06857646982496372,0.0681578738188161,4120.294027044701
106,243.46061369999998,1120,38394,0.8647030136247108,2.319855700018004e-05,1130.379442342953,38979.6280096937,4071,0.06845894170753129,0.06831213093295173,4122.177082153537
107,243.994888925,1112,38101,0.863747888775786,2.3351479866332855e-05,1130.9159437359633,38914.599605879346,4055,0.06872340524661759,0.06845511531355235,4125.0620399102245
108,244.52905879999997,1104,38258,0.8628771528607923,2.3224340659438883e-05,1130.5851095154826,38871.744456272325,4081,0.06913886214314956,0.0685911875612639,4128.725996058722
109,245.063123325,1118,38383,0.8633129275796555,2.316685703957213e-05,1130.5713832702675,38856.60114611808,4113,0.06938473683351853,0.0687098863795948,4134.009467938038
110,245.59708249999997,1128,38153,0.8623491049005171,2.329099540582085e-05,1131.090036014384,38875.051552695804,4101,0.0692441293415054,0.06881906914937191,4141.9918684454115
111,246.130936325,1133,37824,0.862505803534046,2.3507285261618547e-05,1131.4771342499046,38938.597793833775,4076,0.06918194052494338,0.06891982364646844,4152.938934064113
112,246.66468479999997,1139,37808,0.8631762817630669,2.3539673341598268e-05,1131.6421889510307,39054.910779405356,4078,0.06918309995095731,0.06900097280428841,4166.8668826020175
113,247.19832792499997,1130,38119,0.8629529675416884,2.3329989119513596e-05,1131.9328863620703,39224.75990396083,4098,0.06924340770671636,0.0690670453381024,4184.472354979648
114,247.7318657,1116,38727,0.8621360146885437,2.2922443292880907e-05,1132.1649640988253,39442.28258850635,4144,0.06940915829084339,0.06911162693608562,4204.694149357776
115,248.265298125,1119,38870,0.8624878814902607,2.2846755887003276e-05,1132.2102878887185,39704.31778749161,4170,0.069705452211247,0.069131541616669,4227.06018256351
116,248.79862519999998,1133,38767,0.862427427307537,2.2916177586956925e-05,1132.3343224081868,40000.471267751615,4159,0.06934435337813166,0.06912562521128741,4250.891277265542
117,249.33184692499998,1136,39035,0.8621956715984717,2.2749826422820434e-05,1132.61944777909,40319.52340936298,4176,0.06915947232537412,0.06910716404605721,4276.091372397934
118,249.8649633,1142,39573,0.8614594306460737,2.2415743296975715e-05,1133.010668418289,40678.714534869774,4224,0.06908532084127915,0.06907756141047527,4304.083625903109
119,250.397974325,1159,40100,0.861591555373828,2.212556316925164e-05,1133.3184670094233,41082.6550771244,4283,0.06912025934074212,0.06901278991706984,4333.5628440054425
