,x_(nm),baseline_dark,baseline_light,baseline_dark_smoothed,baseline_light_smoothed,raw_signal,calibrated_signal,calibrated_signal_smoothed,raw_signal_smoothed
0,186.23,1288,1289,1284.723020638669,4467.874969565314,1299,11.0,,1282.3530866305557
1,186.775442325,1295,1285,1289.1349409171821,3370.1534256018144,1297,-0.2,,1284.6595931712466
2,187.3207793,1293,1291,1293.3127673646454,2411.324841705748,1282,5.5,,1287.0709471855182
3,187.86601092499998,1294,1294,1297.262057930735,1586.4739295685963,1280,-inf,,1289.5789924032829
4,188.41113719999998,1306,1290,1300.9883705651262,890.6854008818418,1281,1.5625,,1292.1755725544533
5,188.956158125,1311,1284,1304.4972632174943,319.0439673369665,1275,1.3333333333333333,,1294.8525313689418
6,189.50107369999998,1298,1283,1307.7942938375154,-133.36565937454816,1276,1.4666666666666666,,1297.6017125766612
7,190.045883925,1309,1299,1310.8850203748648,-471.45876756121925,1296,1.3,,1300.414959907524
8,190.59058879999998,1319,1309,1313.775000779218,-700.1506455315666,1309,1.0,,1303.2841170914426
9,191.135188325,1317,1315,1316.4697930002512,-824.3565815941074,1316,0.5,,1306.2010278583296
10,191.67968249999998,1318,1321,1318.9749549876392,-848.9918640573587,1330,4.0,,1309.1575359380975
11,192.22407132499998,1322,1325,1321.2960446910581,-778.9717812298395,1322,0.0,,1312.145485060659
12,192.7683548,1318,1328,1323.4386200601834,-619.2116214200678,1307,-1.1,,1315.1567189559264
13,193.312532925,1311,1320,1325.4082390446906,-374.6266729365625,1314,0.3333333333333333,,1318.1830813538127
14,193.8566057,1306,1321,1327.2104595942553,-50.13222408784077,1320,0.9333333333333333,,1321.2164159842298
15,194.400573125,1317,1329,1328.8508396585532,349.3564368175803,1328,0.9166666666666666,,1324.2485665770907
16,194.9444352,1327,1333,1330.33493718726,818.9240214711817,1338,1.8333333333333333,,1327.2713768623078
17,195.488191925,1335,1341,1331.668310130051,1353.6552415644446,1343,1.3333333333333333,,1330.2766905697936
18,196.0318433,1347,1345,1332.856516436602,1948.6348087888514,1346,0.5,,1333.256351429461
19,196.575389325,1349,1333,1333.9051140565884,2598.9474348358835,1349,-0.0,,1336.2022031712218
20,197.11883,1345,1320,1334.8196609396862,3299.6778313970253,1339,0.24,,1339.1060895249893
21,197.662165325,1339,1330,1335.6057150355705,4045.910710163759,1343,-0.4444444444444444,,1341.9598542206757
22,198.2053953,1326,1335,1336.2688342939173,4832.730782827562,1342,1.7777777777777777,,1344.7553409881934
23,198.74851992499998,1320,1335,1336.814576664402,5655.22276107992,1332,0.8,,1347.4843935574552
24,199.2915392,1328,1351,1337.2485000967001,6508.471356612311,1337,0.391304347826087,,1350.1388556583736
25,199.83445312499998,1357,1363,1337.5761625404625,7387.561281116078,1341,-2.6666666666666665,inf,1352.7105710208352
26,200.3772617,1361,2455,1337.7763029739942,8157.283335975743,1342,-0.01736745886654479,inf,1355.3796461980758
27,200.919964925,1346,7014,1337.6279190921396,8941.24643819775,1342,-0.0007057163020465773,inf,1357.5637726788568
28,201.4625628,1338,12401,1337.1621327776138,9741.071621101084,1353,0.0013558709210883123,inf,1358.9373258737196
29,202.005055325,1336,14650,1337.0719382092202,10555.551405467646,1355,0.0014270692504130989,0.024606592325453903,1360.6440915988778
30,202.5474425,1337,15635,1337.3779927064909,11380.549298964648,1360,0.0016086165897328298,0.004164193071418181,1362.4027271285613
31,203.089724325,1345,16333,1337.450882239663,12215.153638813783,1368,0.0015345609821190286,-0.01795517360711047,1363.3596910462036
32,203.63190079999998,1347,16994,1336.755283245348,13059.883893179665,1380,0.0021090304850770116,-0.031005864735052294,1364.1775804661224
33,204.173971925,1337,17490,1336.4666470361474,13911.591202518475,1379,0.002600136197610351,-0.04361743200791363,1365.7505492762882
34,204.71593769999998,1335,17873,1336.7071507848168,14761.044576320814,1373,0.0022977385415406944,-0.06080272924970629,1367.459398853855
35,205.257798125,1329,18121,1336.9727966658106,15600.912115789413,1388,0.00351357789423535,-0.09055423580044397,1368.899907132638
36,205.7995532,1334,18432,1337.2539808375923,16426.66300482426,1395,0.003567668733185168,-0.005985322643054889,1370.484790142446
37,206.34120292499998,1351,19023,1337.4914267593574,17239.45944415469,1384,0.0018673607967406066,-0.029055831408383085,1371.8659765792847
38,206.88274729999998,1337,19694,1337.209880178461,18036.86957801954,1380,0.0023424306803944,-0.0888746580054278,1372.463340052976
39,207.424186325,1319,19996,1336.3653536886197,18808.65634555673,1377,0.0031054237832628365,-0.10992723847678199,1373.1023579242756
40,207.96552,1319,20200,1335.3690683820444,19552.873405965787,1368,0.0025952015253429372,-0.1108794156465463,1373.9250492649628
41,208.506748325,1322,20537,1334.7294842465033,20271.558291240635,1369,0.0024460057246942493,-0.10804897494602665,1374.8670411560588
42,209.0478713,1332,20895,1334.0095132392325,20959.794219574225,1378,0.0023513776005725092,-0.0710651902098631,1375.7947858388375
43,209.588888925,1329,21335,1333.1728011959246,21612.68921153326,1369,0.001999400179946016,-0.040138045363909164,1376.540148134699
44,210.12980119999997,1315,21751,1332.9417200842347,22228.035040430837,1359,0.002153063221765512,-0.028672947462914482,1377.1534123082931
45,210.670608125,1325,22187,1333.4548007882142,22790.6619855485,1365,0.0019173617102866455,-0.030569830557140184,1377.8859543817262
46,211.2113097,1331,22534,1333.9831026750066,23298.957960542262,1370,0.0018393623543838135,-0.024716215376823857,1378.256563002533
47,211.751905925,1334,22660,1334.2252825658309,23751.479829667256,1373,0.0018287536340617088,-0.03962806918108994,1378.7001517587903
48,212.29239679999998,1342,22911,1333.9583229517966,24135.915671928688,1369,0.001251796559877602,0.014855603892475486,1379.1599583229256
49,212.83278232499998,1333,23292,1333.1241024711517,24456.094747332423,1370,0.0016849583314358578,0.04824884426824349,1379.0792996443595
50,213.37306249999997,1331,23700,1332.4010509864067,24715.149742915564,1378,0.0021011220886047654,0.07352055365079453,1378.804321728665
51,213.91323732499998,1332,24235,1332.1183039253185,24906.500939998165,1377,0.0019648081037418677,0.002523773355191152,1377.787288500279
52,214.45330679999998,1346,24848,1331.8045708849322,25065.080613376944,1390,0.0018721810909709813,0.0020031573657767325,1376.9115268748747
53,214.993270925,1352,25344,1330.460123672085,25307.73097918364,1401,0.0020423474491497165,0.00192534778944482,1375.7583637228213
54,215.5331297,1336,25786,1328.9774853337303,25679.643412081325,1383,0.0019222903885480573,0.0018822909798772902,1374.3125325601677
55,216.07288312499998,1329,26263,1328.5526965502927,26100.928061790255,1374,0.0018047645784872062,0.0018218594695936726,1373.3900428095503
56,216.61253119999998,1338,26662,1328.6410337719742,26536.60932297396,1386,0.001895435160322224,0.0017624148481979374,1372.98618315248
57,217.152073925,1348,26917,1329.2657591338166,26987.68228045883,1382,0.0013297352262505377,0.0017028410783406188,1373.2563817979758
58,217.69151129999997,1342,27148,1330.021789847989,27457.323586037666,1366,0.0009300162752848175,0.0016588330490281647,1373.9353099730195
59,218.230843325,1331,27552,1330.694489116376,27944.55416883681,1365,0.001296670607528317,0.0016222865941352234,1374.4946657908183
60,218.77006999999998,1324,28093,1331.346236607825,28445.365829350063,1374,0.001867832193955695,0.0015781468586458733,1374.9171215655813
61,219.30919132499997,1319,28695,1331.6931300821964,28950.49826723087,1379,0.0021917007597895967,0.0015741659996784364,1375.7030510317072
62,219.84820729999998,1319,29150,1332.340755169967,29461.020725270675,1374,0.001976213574790701,0.0015801298532877922,1376.9652993272516
63,220.38711792499998,1328,29558,1333.3762259620573,29989.51310335397,1379,0.0018065887353878852,0.001543911450035667,1377.9922308545797
64,220.9259232,1336,30186,1334.0016081904203,30544.531223809692,1377,0.0014211438474870017,0.00151619601304782,1378.672223606397
65,221.464623125,1331,30787,1334.3074361819945,31114.024870324887,1369,0.0012900597501357958,0.0015108789836540148,1379.3806654737105
66,222.0032177,1324,31200,1334.5560488346027,31686.467054745815,1365,0.0013723390012049805,0.0014873892422121316,1379.536818500959
67,222.54170692499997,1333,31630,1334.743029287161,32259.7845930819,1369,0.001188236459055352,0.0014638613118051918,1379.6476477383144
68,223.0800908,1345,32085,1334.8693515141651,32833.32761783896,1376,0.0010084580351333767,0.001455045982165948,1380.2256676255142
69,223.61836932499997,1339,32457,1334.5936940813806,33406.00527758209,1381,0.0013497011376052445,0.001439666698002624,1380.2992140252063
70,224.1565425,1317,33196,1333.887177512489,33976.83095879795,1378,0.001913485366542238,0.001428843367720763,1380.0124804638572
71,224.69461032499999,1311,33881,1333.4858547192205,34541.252938910744,1377,0.002026404666871354,0.0014170784632044648,1380.0652562911691
72,225.23257279999999,1312,34517,1333.2419080839627,35091.269541778296,1374,0.001867188676404156,0.0014045396293938324,1380.2503567464457
73,225.77042992499997,1312,35467,1332.9236449296443,35621.168520237596,1367,0.001610305958132045,0.0013978851611683603,1380.5184715395328
74,226.30818169999998,1320,36184,1333.0286076694572,36119.86907970667,1368,0.0013767783386874712,0.0013654100499129011,1380.5412580126124
75,226.84582812499997,1320,36662,1332.9903508572986,36593.463317401736,1372,0.0014713372191726558,0.0013435826720611232,1380.6270130693522
76,227.3833692,1335,37189,1332.7141498108422,37037.88244354274,1397,0.0017292352317733028,0.0013403972109592324,1380.9044825477092
77,227.92080492499997,1347,37531,1332.4131916917459,37446.17769371828,1391,0.0012160070749502542,0.0013235930403227142,1380.7772316473497
78,228.45813529999998,1377,37718,1332.5395592198888,37815.61926657383,1398,0.0005778597176742522,0.0012989342633197047,1380.8673129628946
79,228.99536032499998,1385,37984,1333.017508890323,38137.55512016054,1420,0.0009563102817016859,0.001292383305855519,1381.7366191759459
80,229.53248,1355,38439,1332.9579152415427,38402.437155993735,1407,0.001402221982526157,0.0013067526179943575,1382.5293891141098
81,230.069494325,1342,39053,1332.3326915671673,38613.000407709515,1395,0.0014054254726737557,0.0013435230588184223,1383.2227230514582
82,230.60640329999998,1334,39428,1331.9202246936256,38761.72289293001,1379,0.0011812883918727358,0.0013750498129010606,1383.943894538921
83,231.143206925,1334,39675,1331.708668372984,38832.8743799399,1376,0.0010954330872955844,0.0013793981961997084,1384.107658157576
84,231.67990519999998,1328,39762,1331.29835330356,38822.75795601185,1379,0.0013269500962689285,0.0013698749621340845,1383.6016897324703
85,232.216498125,1326,39799,1330.6522458039565,38741.696550317494,1377,0.0013256049697190238,0.0013637222305740583,1382.8816281229208
86,232.75298569999998,1329,39924,1329.858456590158,38594.01778069644,1380,0.001321414691022153,0.0013698651740685587,1382.2936872862085
87,233.289367925,1322,39981,1328.8765543953177,38376.58549457444,1373,0.001319227088129543,0.001403940941998356,1382.0817459058833
88,233.8256448,1326,39803,1327.8385920405644,38081.34415275471,1371,0.0011695298490007017,0.0014527885316268337,1381.971097873085
89,234.36181632499998,1327,39314,1327.3015243833129,37705.11855308088,1379,0.0013688893568852502,0.001507377472789735,1382.3197127907501
90,234.89788249999998,1317,38701,1327.1770595030212,37264.91838999679,1375,0.0015514658677509095,0.0015465441159624072,1382.5732632675447
91,235.433843325,1313,38175,1326.7309791841012,36767.674692517816,1384,0.0019261027616515652,0.001585479400801109,1382.3656707965943
92,235.9696988,1312,37666,1325.8441640807014,36205.82303109853,1386,0.0020355394179457555,0.0016405054915165605,1381.9448232122772
93,236.505448925,1320,37024,1325.1111689958748,35577.706086207385,1379,0.001652475913062962,0.0016899574639828946,1381.3617069469033
94,237.04109369999998,1329,36324,1324.7283517180201,34889.953430428104,1387,0.0016573796256608086,0.0017230389798124695,1380.564338943098
95,237.576633125,1327,35448,1324.305125823889,34144.6996760962,1388,0.0017877553412854253,0.0017710118919348789,1379.9861831524797
96,238.11206719999998,1323,34551,1323.0148361231031,33354.54377222523,1380,0.0017154207295052367,0.0018602806531946765,1379.5347572991195
97,238.64739592499998,1321,33641,1321.0532288386798,32531.652404357348,1378,0.0017636138613861387,0.0019809830799816497,1379.180162631064
98,239.1826193,1325,32460,1319.1294480055922,31689.3476862437,1376,0.001638027942829613,0.0021068513157468907,1378.9724116061257
99,239.71773732499997,1318,31535,1317.18852069127,30849.69587080056,1378,0.0019856372240791608,0.0022145662911897497,1378.244286393776
100,240.25275,1312,30320,1315.4667376384266,30011.759564202464,1374,0.0021373414230557086,0.002311475726229749,1377.4067362793912
101,240.787657325,1315,29050,1314.2143649912543,29179.653333030765,1373,0.002091220479538489,0.0024052577201800654,1376.990985073248
102,241.3224593,1314,27963,1313.8597476726288,28367.942829961634,1385,0.0026642650756125933,0.002487866336080184,1377.219348116579
103,241.85715592499997,1312,26922,1314.3088178667442,27582.523454664355,1393,0.003162827020695041,0.0025443700721588724,1377.4056037509079
104,242.3917472,1306,25953,1315.5509524564288,26819.380144510124,1382,0.0030835395788534102,0.0025860927126799796,1377.866633445805
105,242.92623312499998,1307,25169,1317.021359487166,26094.845296608713,1368,0.0025563657698432656,0.0026390910313462907,1379.0501483612047
106,243.46061369999998,1317,24256,1318.0858230084236,25430.593195768386,1359,0.00183094293561184,0.002701477875180638,1380.3218645948682
107,243.994888925,1318,23453,1318.5788353076828,24834.662098801313,1367,0.002213688728258414,0.002765396079615683,1381.2478425332133
108,244.52905879999997,1323,23005,1318.9209042107154,24306.06224376496,1382,0.002721151185315008,0.0028168434386094798,1381.7128360778008
109,245.063123325,1327,22658,1319.4923101315746,23852.681691544083,1389,0.002906567905864704,0.0028568956218978565,1382.14426147815
110,245.59708249999997,1326,22147,1319.6462207524266,23489.53258284401,1395,0.0033139618654243314,0.0028997489603132774,1382.5104532378725
111,246.130936325,1324,21663,1319.646583161541,23234.116741035596,1401,0.0037858301784748512,0.002935790000213036,1382.746177716343
112,246.66468479999997,1324,21438,1319.8942671407933,23094.662733017296,1396,0.0035795963010838224,0.0029643365885315487,1383.236743754079
113,247.19832792499997,1324,21480,1320.207615121495,23075.36170694649,1389,0.003224846199642786,0.0029861248426334185,1383.8468141973506
114,247.7318657,1314,21757,1320.572583750456,23174.358694420724,1378,0.0031306559702587683,0.0029985684210174714,1384.4911549525207
115,248.265298125,1306,21878,1320.754739631676,23387.49665904053,1378,0.00349990278047832,0.0030114119060374277,1385.3178327934681
116,248.79862519999998,1310,21939,1321.0800697637292,23704.333144578133,1384,0.0035871830917640216,0.0030138163830793017,1386.075494348656
117,249.33184692499998,1316,22274,1321.7499603614779,24115.182223832468,1385,0.003292298883481248,0.003012913893070721,1387.1411356995363
118,249.8649633,1319,22930,1322.2111259597923,24635.14188316789,1393,0.0034241821294711027,0.0030146535869082333,1388.4175179505496
119,250.397974325,1321,23677,1322.556116786312,25269.90081315497,1409,0.003936303453211666,0.0030068757192759574,1389.6753946861497
120,250.93087999999997,1319,24575,1323.1682937325622,26020.10686538717,1411,0.003955968352253182,0.0029936382995584287,1391.3879816077108
121,251.46368032499998,1327,25789,1324.0504881197508,26873.841491312993,1408,0.0033112582781456954,0.002978475882211984,1393.6534462841475
122,251.99637529999998,1344,26967,1324.971981245303,27810.05137149146,1407,0.0024587284861257463,0.0029563758418844135,1395.9713243787812
123,252.52896492499997,1345,28048,1325.6834356383808,28821.485514960154,1401,0.00209714264314871,0.0029398784117732587,1398.674760470199
124,253.06144919999997,1347,29110,1326.399035085707,29896.941131168875,1413,0.0023772647048229656,0.0029222697168119105,1401.7570952909198
125,253.593828125,1350,30414,1327.215701374864,31047.939590930124,1420,0.0024084778420038534,0.002909019244662321,1405.4081859158487
126,254.1261017,1336,31760,1328.016761421524,32259.293959092458,1412,0.0024980278727320536,0.0029072271180926148,1409.9988221703504
127,254.65826992499998,1321,33056,1328.8292147047243,33505.48748555962,1420,0.003119584055459272,0.0029145651997583883,1415.4183560216268
128,255.19033279999996,1306,34336,1329.2985118575477,34778.71872522528,1423,0.003542234332425068,0.0029493798960243092,1421.7494167478042
129,255.722290325,1313,35957,1329.5935128768233,36074.65872386621,1429,0.0033483431474425587,0.003011541227640344,1429.1564248340574
130,256.2541425,1323,37468,1329.7975492083372,37387.14897279595,1439,0.003209295891547932,0.003085279411209677,1437.3484790142195
131,256.78588932499997,1315,38785,1330.227683526215,38701.87487825245,1437,0.0032559380838003736,0.0031537836370277884,1446.0776914539124
132,257.3175308,1326,40375,1330.7948311399775,39996.89485605486,1449,0.0031498886015006787,0.003223112026558044,1455.732134363151
133,257.849066925,1327,42178,1331.1362658270602,41257.366871276026,1460,0.003255734253751438,0.003330009264135577,1466.8211284513525
134,258.3804977,1322,43978,1331.6859498516133,42488.11855308079,1469,0.003446174043510878,0.003469259189235231,1479.3870755849225
135,258.91182312499996,1333,45427,1332.177059503021,43691.87750571843,1487,0.003492538667392389,0.003631817923855432,1493.0766721782766
136,259.4430432,1340,46443,1332.5254705655593,44850.442410925774,1505,0.003658293239917522,0.0038326041820483147,1508.2161090851146
137,259.974157925,1339,47429,1333.0872046931725,45956.76950780224,1517,0.0038620091126057715,0.004080318619242821,1525.4802826790801
138,260.5051673,1333,48352,1333.5647693039225,47014.63784004077,1524,0.004062187626278738,0.0043609651302926045,1544.5811230152144
139,261.03607132499997,1338,49200,1333.8305284377645,48008.978527259045,1539,0.0041995737746019805,0.004655418172428154,1564.3151826768144
140,261.56687,1350,49891,1333.646696414389,48934.34374504425,1562,0.004367441956284378,0.004980456802507138,1584.942988516131
141,262.097563325,1339,50777,1332.8788647534232,49788.757820108214,1585,0.004975929446984101,0.005361011301095856,1607.3225441119537
142,262.62815129999996,1323,52089,1332.2383519445261,50559.362998028424,1612,0.005692786510656739,0.00577686377256573,1631.2428141067435
143,263.158633925,1327,52907,1331.7940610206092,51250.49790482132,1640,0.006068243505234587,0.00621837655724256,1656.7154635438765
144,263.6890112,1339,53287,1331.439556954832,51864.014700218715,1670,0.0063717563717563715,0.006701856898901252,1684.0201137058273
145,264.219283125,1342,53377,1331.3889555822072,52388.73140954395,1703,0.006937638128182954,0.007237422186178462,1713.1911934584825
146,264.7494497,1334,53423,1331.0115291399322,52832.2816824833,1730,0.007602372861832633,0.007819806403558694,1743.8478561235481
147,265.27951092499995,1330,53901,1330.7893950032587,53215.34818455581,1768,0.008331589659698312,0.00842121943490378,1776.0756076014973
148,265.8094668,1336,54380,1330.9893995333728,53531.90323676538,1804,0.00882286403740291,0.009045621438033056,1810.303562934573
149,266.33931732499997,1342,54680,1331.2466420530222,53763.798976193226,1844,0.009411676478308147,0.009699997549879292,1845.6507508663492
150,266.8690625,1333,54479,1331.888106185845,53905.73603026012,1886,0.010405298611372446,0.010388371987517553,1882.0519151056285
151,267.398702325,1326,54056,1332.844322634689,53974.741624950824,1912,0.01111321828181301,0.011107965444005179,1919.7248861808507
152,267.9282368,1326,53967,1333.753222043509,53984.726902080554,1946,0.01177789175737543,0.011855892645221059,1958.5357992253132
153,268.457665925,1335,53887,1334.338807220976,53931.226641598994,1995,0.012558989191657786,0.01266422330275721,1999.146390631686
154,268.9869897,1338,53552,1334.3461460055462,53809.05354594565,2041,0.013463821963458076,0.013536087948449784,2041.147228702763
