,x_(nm),baseline_dark,baseline_light,baseline_mirror,baseline_calibration,baseline_dark_smoothed,baseline_light_smoothed,raw_signal,calibrated_signal,calibrated_signal_smoothed,raw_signal_smoothed
0,186.23,1196,1190,0.3621226043733797,-0.06035376739556328,1166.407963927386,4010.0823396605947,1216,-1.2070753479112657,,1606.1325213200903
1,186.775442325,1187,1187,1.18800459154587,inf,1176.667866979076,3046.0723109176006,1217,inf,,1472.1935190718757
2,187.3207793,1185,1191,1.908567993433533,0.31809466557225546,1186.2300746003928,2202.702048443959,1223,12.087597291745707,,1355.5235785267168
3,187.86601092499998,1188,1194,1.7279185264672412,0.28798642107787353,1195.116400816091,1475.8586088813881,1219,8.92757905341408,,1255.5094434193597
4,188.41113719999998,1195,1198,1.043047789334166,0.34768259644472205,1203.3486596509265,861.429048871606,1209,4.867556350226109,,1171.5378574845504
5,188.956158125,1194,1202,0.840365554154959,0.10504569426936987,1210.9486651296543,355.3004250563308,1206,1.2605483312324384,,1102.9955644570343
6,189.50107369999998,1197,1206,0.8202728553565946,0.09114142837295496,1217.9382312770292,-46.64020592271845,1211,1.2759799972213695,,1049.2693080715578
7,190.045883925,1217,1223,0.837733819880384,0.13962230331339734,1224.3391721178068,-348.5057874238246,1228,1.5358453364473708,,1009.7458320628668
8,190.59058879999998,1228,1230,0.8116271105193998,0.4058135552596999,1230.173301676742,-554.4092628052704,1244,6.493016884155199,,983.8118801657074
9,191.135188325,1228,1233,0.8262856362484797,0.16525712724969593,1235.4624339785905,-668.4635754253359,1252,3.9661710539927024,,970.8541961148251
10,191.67968249999998,1246,1242,0.8012221689422371,-0.20030554223555927,1240.228383048107,-694.7816686423039,1263,-3.4051942180045076,,970.2595236449664
11,192.22407132499998,1260,1232,0.7775424502505143,-0.02776937322323265,1244.492962910047,-637.4764858144572,1255,0.13884686611616326,,981.4146064908768
12,192.7683548,1248,1227,0.7753865851703869,-0.03692317072239938,1248.2779875891656,-500.66097030007586,1241,0.2584621950567957,,1003.7061883873025
13,193.312532925,1235,1240,0.7956261498651602,0.15912522997303205,1251.605271110218,-288.4480654574427,1225,-1.5912522997303205,,1036.5210130689898
14,193.8566057,1236,1246,0.7908861747409445,0.07908861747409444,1254.4966274979593,-4.950714644839536,1226,-0.7908861747409445,,1079.2458242706834
15,194.400573125,1247,1234,0.7942231778648126,-0.06109409060498558,1256.9738707771448,345.7181387794535,1253,-0.3665645436299135,,1131.2673657271307
16,194.9444352,1255,1237,0.7947581770897779,-0.04415323206054322,1259.0588149725297,759.4455514571519,1262,-0.3090726244238025,,1191.9723811730769
17,195.488191925,1272,1263,0.7914877943554887,-0.08794308826172097,1260.7732741088694,1232.1185800299736,1266,0.5276585295703258,,1260.7476143432682
18,196.0318433,1284,1276,0.7911116722494277,-0.09888895903117846,1262.1390622109188,1759.6242811396378,1278,0.5933337541870708,,1336.9798089724507
19,196.575389325,1280,1258,0.7900325230816138,-0.035910569230982445,1263.1779933034331,2337.849711427864,1272,0.28728455384785956,,1420.0557087953698
20,197.11883,1272,1246,0.798472358442206,-0.03071047532470023,1263.9118814111678,2962.6819275363696,1258,0.4299466545458032,,1509.3620575467717
21,197.662165325,1276,1261,0.7981102791346143,-0.05320735194230762,1264.3625405588778,3630.0079861068707,1266,0.5320735194230762,,1604.2855989614025
22,198.2053953,1269,1267,0.8040599544843242,-0.4020299772421621,1264.5517847713184,4335.714943781085,1275,-2.4121798634529728,,1704.213076774008
23,198.74851992499998,1257,1261,0.8074165803696804,0.2018541450924201,1264.5014280732448,5075.6898572007385,1259,0.4037082901848402,,1808.5312347193346
24,199.2915392,1263,1265,0.8060625325032217,0.40303126625161084,1264.2332844894122,5845.819783007536,1256,-2.821218863761276,,1916.626816532128
25,199.83445312499998,1293,1278,0.8122546130835153,-0.05415030753890102,1263.769168044552,6641.991777843085,1274,1.0288558432391195,-inf,2027.8865659470948
26,200.3772617,1291,2267,0.8144257223941842,0.0008344525844202707,1263.8870416090722,7349.9125914515325,1411,0.10013431013043249,-inf,2125.9682439012936
27,200.919964925,1256,6368,0.8150182986479615,0.00015943237453989857,1263.141634012071,8074.8333597588435,2002,0.11893655140676433,-0.6720656850102258,2225.675530589552
28,201.4625628,1238,11079,0.8232603193402961,8.365616495684342e-05,1262.1148383881614,8816.806767990049,2650,0.11812250491906291,-0.46434298773686056,2327.2615914289795
29,202.005055325,1242,13041,0.8194894939197722,6.945414814134861e-05,1261.528120682211,9575.566671951616,2933,0.1174469645070205,-0.29402886715330195,2430.78588416494
30,202.5474425,1264,13929,0.8269202298982968,6.529176706658483e-05,1261.1520306235461,10348.11323019754,3061,0.11732930541865294,-0.2065587711717748,2535.266461301453
31,203.089724325,1263,14610,0.8298864771900701,6.217775359182364e-05,1259.9947224172447,11135.010849622657,3142,0.11683199899903662,-0.20960969672621393,2640.4241772180067
32,203.63190079999998,1263,15304,0.8293789756785952,5.906836946646216e-05,1258.4062606174307,11937.401164239052,3235,0.11648282458786338,-0.206338540402633,2746.898434845584
33,204.173971925,1251,15824,0.8303112569560028,5.697600061456137e-05,1257.5449500554698,12752.16917710456,3315,0.11759846526845467,-0.18849290887558665,2854.7358037554095
34,204.71593769999998,1248,16197,0.832804584655424,5.570971868723152e-05,1257.0980769666119,13570.515957326066,3366,0.11799318417955636,-0.001987569898415876,2962.727558948051
35,205.257798125,1248,16550,0.8371769300637781,5.4710294736882635e-05,1256.5461052345227,14385.61108971863,3392,0.11729887191587637,0.1406931961383707,3070.173503363551
36,205.7995532,1241,16976,0.8381556767340916,5.3266963885229846e-05,1256.1751795057405,15193.099617205082,3432,0.11670791787253859,0.06879118377484784,3176.0650071348687
37,206.34120292499998,1255,17557,0.840625124319978,5.1565766428657713e-05,1255.9627624634518,15994.225463770106,3505,0.11602297446447986,0.09272728272194226,3279.9120025368006
38,206.88274729999998,1244,18210,0.8415937915656597,4.960472660412942e-05,1255.5306348954434,16786.123490905473,3577,0.11572782716743393,0.12197517289087084,3381.128202224221
39,207.424186325,1232,18596,0.8431564976534377,4.85577342578575e-05,1254.3919454574043,17560.60499671533,3604,0.11517894565963799,0.09342564109619507,3478.0791184397626
40,207.96552,1236,18863,0.844165982526256,4.789050788711953e-05,1253.0638746064221,18315.724931481676,3630,0.11464987588176416,0.08191301453510333,3571.403814355863
41,208.506748325,1240,19246,0.8476484869242688,4.7075890643356035e-05,1251.991483385783,19051.410496273613,3664,0.11411195891949504,0.07967542912843073,3662.1540465241997
42,209.0478713,1255,19707,0.8491768105118729,4.602085467764323e-05,1251.1827900971468,19765.21832884059,3728,0.1138095736178117,0.07714722504227892,3749.1736392669554
43,209.588888925,1258,20240,0.8502736512177026,4.4793680919697745e-05,1250.795510657069,20451.002718067968,3802,0.11395512425971106,0.09983150183060248,3831.467734263443
44,210.12980119999997,1254,20669,0.8513731200582484,4.385130672460718e-05,1250.8633491132061,21107.48069038896,3831,0.11300481742931269,0.12765553900532328,3908.949104169895
45,210.670608125,1255,21159,0.8534308197221572,4.287735227703764e-05,1250.9669301682698,21720.34000770078,3872,0.11221003090900751,0.14905731154488003,3979.418061564172
46,211.2113097,1250,21612,0.8557212941711507,4.2025404880225455e-05,1250.9239167364822,22286.441051892023,3929,0.112586059674124,0.17684294602566072,4041.862805499481
47,211.751905925,1241,21857,0.8575135521308375,4.1594565004406165e-05,1251.264762508753,22803.844798296235,3961,0.11313721681198477,0.210588197183089,4096.381888604419
48,212.29239679999998,1250,22184,0.8580327959771828,4.098752249819351e-05,1251.3531903327132,23261.70155609369,3996,0.11255173678003937,0.15224166540351156,4141.715599447247
49,212.83278232499998,1254,22621,0.8587529108532552,4.0190616878984194e-05,1250.8994088201077,23664.94468730843,4040,0.11197105862484996,0.1709410879908289,4177.979252078109
50,213.37306249999997,1253,23147,0.8598387128136875,3.9272801352593745e-05,1250.8021019728405,24017.217536070573,4084,0.11118130062919289,0.08719873612446351,4205.40383700642
51,213.91323732499998,1262,23714,0.8611437003932625,3.835487708860068e-05,1251.0408616276459,24308.575981335467,4138,0.11030862650681555,0.11103947796172234,4222.35563659418
52,214.45330679999998,1276,24370,0.8624756676121401,3.734630932762363e-05,1251.4787650909182,24569.994903621355,4215,0.10976080311388586,0.11002613788502659,4233.829418559795
53,214.993270925,1277,24977,0.8630074298534857,3.6413815605632306e-05,1250.7282384651735,24906.987519535636,4280,0.10935068826371382,0.10951709232232551,4255.194070080781
54,215.5331297,1256,25523,0.8629495266956824,3.556061839929461e-05,1248.9434641781,25355.039276087304,4320,0.1089577347754387,0.10898085505715698,4290.406645677056
55,216.07288312499998,1244,26095,0.8648478670709356,3.480133061329265e-05,1248.0790278375262,25841.070556524,4371,0.10882376082776613,0.108410392986908,4330.982400507289
56,216.61253119999998,1258,26559,0.8650803831098881,3.4191549073549985e-05,1248.4422297220535,26333.313370630764,4423,0.1082162528177857,0.10782400746336504,4372.329837595332
57,217.152073925,1266,26866,0.8652291434094919,3.379801341443328e-05,1249.1056196063091,26834.198283086305,4444,0.10741008663106896,0.10722070447293137,4414.27769598397
58,217.69151129999997,1253,27155,0.8680312398394996,3.351213187551153e-05,1249.7282837663126,27346.250741805634,4456,0.10733935839726343,0.10659780865202967,4456.931029015294
59,218.230843325,1242,27608,0.868212549145114,3.292924786259251e-05,1249.835443611383,27870.651702189774,4491,0.10698712630556305,0.1059846951874232,4499.640875217925
60,218.77006999999998,1237,28188,0.868144571802742,3.2211961404131273e-05,1250.1684975876904,28403.996466510587,4526,0.10594514105818775,0.10537194594288467,4542.4728759427435
61,219.30919132499997,1242,28836,0.8681762475955156,3.146250081885611e-05,1250.6648168701204,28938.47799497102,4584,0.10514767773661712,0.10474722441346189,4584.584883009719
62,219.84820729999998,1248,29322,0.868951283960652,3.095217225762813e-05,1250.7343767695518,29474.54377222531,4624,0.10449453354175256,0.10412660209907817,4626.440462977555
63,220.38711792499998,1241,29786,0.8691522224557424,3.0448492641644506e-05,1250.987474234953,30021.275680082785,4657,0.10401205086385763,0.10350803713614695,4669.616593807245
64,220.9259232,1247,30436,0.8692686507714266,2.9780693095735606e-05,1250.8645269428284,30585.942920563866,4724,0.1035474698938727,0.1028890539661824,4714.1779428751715
65,221.464623125,1249,31046,0.8701622824311823,2.9203016492639605e-05,1250.3013205281875,31160.95809644553,4769,0.10279461805409142,0.10225319945046028,4758.288092595437
66,222.0032177,1247,31517,0.86932404321908,2.871899713310472e-05,1249.6372058257025,31736.17329950787,4786,0.1016365308540576,0.10160208502669729,4801.159618564315
67,222.54170692499997,1243,31940,0.8705973257298546,2.8360990511445894e-05,1249.2612743210252,32308.70391175276,4804,0.10099348721125882,0.10093798628091838,4842.849192507098
68,223.0800908,1245,32453,0.8704844215444587,2.7892989667535846e-05,1249.740469772791,32881.10426057152,4829,0.09996847496844848,0.10027522085075666,4884.847425762665
69,223.61836932499997,1244,32850,0.8703398065724872,2.7537170365515638e-05,1250.2227004008912,33452.74429771845,4843,0.09910627614549078,0.09963314349256294,4926.927744682684
70,224.1565425,1242,33567,0.8697053263836744,2.6905037165774924e-05,1250.2075471697872,34020.987927245726,4893,0.09823029069224425,0.09898735728900276,4967.868604045296
71,224.69461032499999,1241,34286,0.8700422735223692,2.6329014178313486e-05,1250.136220525922,34588.129380053244,4950,0.09765431358736472,0.09833904489201391,5008.331151328361
72,225.23257279999999,1233,34983,0.8700397124616915,2.577895444330938e-05,1249.4842691793458,35151.427982513094,5008,0.09731555302349292,0.09772920424467112,5048.475526059384
73,225.77042992499997,1235,35944,0.8700678242154535,2.506749904103989e-05,1248.4674851072264,35703.78774151101,5097,0.09681068129649605,0.09716525796065631,5087.779247547978
74,226.30818169999998,1241,36620,0.8699872642519537,2.4590499003701454e-05,1248.191759722733,36244.25857890256,5140,0.09587835561543197,0.09660810828957127,5126.178599741685
75,226.84582812499997,1234,37016,0.8700242014773532,2.431457720298902e-05,1248.020702620647,36778.58809938999,5163,0.09553197383054386,0.09606243399282414,5163.943758635431
76,227.3833692,1257,37579,0.8696880407569096,2.3943836813967008e-05,1247.6491879770535,37307.213594871195,5244,0.09546407737728646,0.09552111450718706,5200.64307232317
77,227.92080492499997,1258,37983,0.87010037851645,2.369231799908645e-05,1247.5825726516782,37823.430089016016,5270,0.09505357981233484,0.09499188346644415,5236.5702280911355
78,228.45813529999998,1271,38211,0.8693067287349536,2.3532937973333882e-05,1247.9766472626545,38330.92391673577,5274,0.09420235070725552,0.09448365523912514,5272.454868739847
79,228.99536032499998,1294,38517,0.8691277262341458,2.3349212213796465e-05,1248.5272826111336,38825.616752360576,5300,0.09353694412846864,0.09400819368048918,5308.180434437824
80,229.53248,1271,39076,0.86926662631248,2.299343013655548e-05,1248.4250379396804,39298.02826791019,5324,0.09319237234345937,0.09357776366187624,5342.700831275804
81,230.069494325,1254,39846,0.8686441253792921,2.2508398771229584e-05,1247.86242043985,39758.23194183258,5378,0.09282463653255081,0.0931784244510753,5376.326213504166
82,230.60640329999998,1245,40412,0.868302707705708,2.216924216063799e-05,1247.711454393054,40196.90040544443,5401,0.09213537041961148,0.09278331470505759,5407.7023262134
83,231.143206925,1248,40950,0.8687016218294412,2.1880550648064107e-05,1247.7032322362668,40593.31106027239,5438,0.0916795072153886,0.09240786470971234,5435.274547554766
84,231.67990519999998,1255,41281,0.8683284847277679,2.1694110946079248e-05,1247.4293868490554,40947.35450406499,5493,0.09193964218948385,0.09206078402749665,5458.559786178517
85,232.216498125,1244,41529,0.8683608504247778,2.1555438759458307e-05,1246.8761466850654,41275.72475027668,5521,0.09219261157420318,0.09174346015071878,5479.599084916881
86,232.75298569999998,1236,41965,0.868249886800152,2.1317731513176164e-05,1246.0887675824806,41584.686810572486,5549,0.09194337601632879,0.0914458983841677,5499.240820856539
87,233.289367925,1240,42428,0.867778574191436,2.1068723273561135e-05,1245.3724659674951,41867.28052730446,5570,0.09122757177451972,0.09118314554876393,5517.776982491005
88,233.8256448,1246,42715,0.8676471171202086,2.092278851962209e-05,1245.118824888422,42109.93424539546,5567,0.09040736919328705,0.0909519685997849,5533.700627420674
89,234.36181632499998,1247,42791,0.8677489292852631,2.088746700571113e-05,1244.752904935535,42304.85542141304,5558,0.09004587026162068,0.090742320939093,5545.18106865377
90,234.89788249999998,1247,42776,0.8672589311593729,2.0883212481865032e-05,1244.3360212009095,42474.71206595764,5560,0.09006929543428388,0.09055038042546162,5554.634804865236
91,235.433843325,1251,42872,0.8668004592010585,2.082603635667232e-05,1243.8633717637758,42628.012639017055,5580,0.09015591138803447,0.09037511596439055,5562.817708215254
92,235.9696988,1242,43092,0.8665578153052318,2.0706279935608885e-05,1243.5347799496917,42750.07103218564,5601,0.09025867423931913,0.09020009265541876,5567.987995197974
93,236.505448925,1224,43239,0.8666098942893835,2.062620241079099e-05,1242.890099435977,42833.72957484798,5598,0.09021900934479979,0.090043619920165,5569.412308319446
94,237.04109369999998,1223,43429,0.8664654382940954,2.0529437480313118e-05,1242.0827651815205,42886.7077623494,5613,0.09012423053857459,0.08988594140812191,5567.542526444433
95,237.576633125,1233,43551,0.8658853313998153,2.0461395420384122e-05,1241.3922625653797,42904.27710706842,5623,0.0898255258954863,0.08972243385344288,5561.89705316078
96,238.11206719999998,1234,43586,0.8659634438688039,2.0446813464979313e-05,1240.9171215655838,42889.53330766186,5616,0.08959793660353935,0.08956112377627846,5553.512491789061
97,238.64739592499998,1248,43602,0.8653764850454776,2.0431989541613012e-05,1240.2227004008912,42854.98828965466,5615,0.08922649832822402,0.0894047300242814,5542.970486307625
98,239.1826193,1251,43546,0.865240351462597,2.0457272761853578e-05,1239.1589390472934,42814.14328750285,5601,0.08898913651406307,0.08925099112370079,5531.596344197951
99,239.71773732499997,1233,43482,0.8654717432609225,2.0485023154652713e-05,1238.1788715485957,42784.35135563577,5583,0.0891098507227393,0.08910099409575802,5521.821649414377
100,240.25275,1231,43212,0.8654328986505,2.061487098093185e-05,1237.245645427959,42756.51518720615,5556,0.08915931699253025,0.08893509263830571,5511.52470044611
101,240.787657325,1235,42895,0.8649750843904328,2.0762724061220183e-05,1236.176108179097,42720.25228204407,5536,0.089300476187308,0.08877795690026762,5500.5946454052255
102,241.3224593,1233,42757,0.8650023747478218,2.08313836515707e-05,1235.904844956827,42691.28897596693,5510,0.08909582787776789,0.08863145931429146,5491.4605540328275
103,241.85715592499997,1233,42520,0.864426750181391,2.0937020131794296e-05,1235.69498742891,42663.88371197454,5479,0.08889858747959858,0.08847530692234405,5481.889442569376
104,242.3917472,1232,42313,0.8640504083213235,2.1032847504231237e-05,1235.7338331558803,42627.088042763455,5437,0.08844312375529235,0.0882978946585228,5470.730095811804
105,242.92623312499998,1235,42327,0.8638615542876957,2.10226212958166e-05,1236.606786110647,42591.68493057519,5399,0.08753819507578031,0.08809993158933249,5459.507486013168
106,243.46061369999998,1238,41973,0.8647030136247108,2.1227519666741397e-05,1237.303993295408,42575.8813563153,5354,0.08737247094830759,0.08789566850255115,5449.652404357866
107,243.994888925,1238,41750,0.863747888775786,2.132079109339914e-05,1237.3637907993148,42579.05266257365,5354,0.08775637614043086,0.08767991911883548,5440.655756642176
108,244.52905879999997,1244,42037,0.8628771528607923,2.115257894395588e-05,1237.1879997281696,42591.27522707115,5378,0.0874447613543136,0.08743198595225558,5431.014043353087
109,245.063123325,1243,42306,0.8633129275796555,2.1024107531832926e-05,1237.444562730729,42621.08450927459,5411,0.08762848019267963,0.08715498328388492,5422.01454166562
110,245.59708249999997,1242,42140,0.8623491049005171,2.1085361262177053e-05,1237.8791365602606,42676.04396475489,5397,0.08760967604434565,0.08687527356275247,5415.3192597792795
111,246.130936325,1244,41832,0.862505803534046,2.1250266175570268e-05,1237.8364855375876,42766.07862012647,5348,0.08721109238454038,0.08660872013653774,5412.071666402307
112,246.66468479999997,1246,41811,0.8631762817630669,2.127884338131559e-05,1237.4757525651532,42898.22861219878,5306,0.08639210412814129,0.08633101500821173,5411.835330358455
113,247.19832792499997,1236,42128,0.8629529675416884,2.1103222330570486e-05,1237.1915785181761,43072.840879747295,5296,0.08567908266211617,0.08601579668062409,5413.74579265658
114,247.7318657,1231,42776,0.8621360146885437,2.075185978309168e-05,1237.0913723979922,43283.0849396354,5347,0.08541465486720534,0.08565427726932098,5416.67756914076
115,248.265298125,1237,42930,0.8624878814902607,2.0686635202318392e-05,1237.307390880857,43522.32005254848,5361,0.08531168357436104,0.08525458763097318,5420.412965185971
116,248.79862519999998,1241,42784,0.862427427307537,2.0759873560107286e-05,1237.8888536546458,43782.62080681245,5332,0.0849286427343989,0.08483343119769997,5425.147296654406
117,249.33184692499998,1234,43021,0.8621956715984717,2.0633107703316142e-05,1238.6739223991246,44055.78096899052,5333,0.08457510847589286,0.08438845677911613,5430.0312804365985
118,249.8649633,1240,43524,0.8614594306460737,2.0373177340035797e-05,1239.34537588618,44357.733153637964,5362,0.08397823699562755,0.08391990302113077,5435.991913746526
