,x_(nm),baseline_dark,baseline_light,baseline_mirror,baseline_calibration,baseline_dark_smoothed,baseline_light_smoothed,raw_signal,calibrated_signal,calibrated_signal_smoothed,raw_signal_smoothed
0,186.23,1030,1031,0.3621226043733797,0.3621226043733797,1005.6870239145478,3697.0138181381453,1023,-2.534858230613658,,1211.6529180935393
1,186.775442325,1025,1028,1.18800459154587,0.39600153051528997,1011.7952398569481,2779.731615077916,1021,-1.5840061220611599,,1149.2527720070448
2,187.3207793,1027,1017,1.908567993433533,-0.19085679934335328,1017.5761674965091,1977.4766293293821,1032,-0.9542839967167664,,1095.216656390019
3,187.86601092499998,1020,1017,1.7279185264672412,-0.5759728421557471,1023.0375689995391,1286.306173032042,1034,-8.063619790180459,,1049.2497611300605
4,188.41113719999998,1012,1029,1.043047789334166,0.06135575231377448,1028.1872065323462,702.2775583253933,1030,1.1044035416479405,,1011.0572761147673
5,188.956158125,1015,1027,0.840365554154959,0.07003046284624657,1033.0328422612388,221.44809734893624,1027,0.8403655541549588,,980.3443912317382
6,189.50107369999998,1024,1014,0.8202728553565946,-0.08202728553565945,1037.5822383525249,-160.1248977578316,1027,-0.24608185660697834,,956.8162963685711
7,190.045883925,1036,1029,0.837733819880384,-0.119676259982912,1041.8431569725128,-446.384114855412,1046,-1.19676259982912,,940.1781814128647
8,190.59058879999998,1041,1051,0.8116271105193998,0.08116271105193998,1045.823360287511,-641.2722418043049,1062,1.7044169320907396,,930.1352362522169
9,191.135188325,1046,1063,0.8262856362484797,0.04860503742638116,1049.530610463827,-748.7319664650131,1071,1.215125935659529,,926.3926507742262
10,191.67968249999998,1054,1068,0.8012221689422371,0.057230154924445505,1052.97266966777,-772.7059766980374,1084,1.7169046477333652,,928.6556148664911
11,192.22407132499998,1051,1064,0.7775424502505143,0.059810957711578024,1056.1573000656476,-717.1369603638796,1073,1.3158410696547165,,936.6293184166099
12,192.7683548,1049,1049,0.7753865851703869,inf,1059.0922638237682,-585.9676053230387,1048,-inf,,950.0189513121805
13,193.312532925,1051,1047,0.7956261498651602,-0.19890653746629006,1061.78532310844,-383.1405994360216,1041,1.9890653746629006,,968.5297034408017
14,193.8566057,1053,1056,0.7908861747409445,0.26362872491364814,1064.2442400859713,-112.59863056332597,1066,3.427173423877426,,991.8667646900716
15,194.400573125,1052,1064,0.7942231778648126,0.06618526482206771,1066.47677692267,221.71561343454687,1086,2.2502990039503024,,1019.7353249475884
16,194.9444352,1061,1077,0.7947581770897779,0.04967238606811112,1068.490695784845,615.8594446970974,1088,1.3411544238390003,,1051.8405741009508
17,195.488191925,1083,1091,0.7914877943554887,0.09893597429443608,1070.2937588388038,1065.890175363822,1098,1.4840396144165413,,1087.8877020377568
18,196.0318433,1105,1100,0.7911116722494277,-0.15822233444988554,1071.893728250855,1567.8651175742161,1113,-1.2657786755990843,,1127.581898645605
19,196.575389325,1095,1094,0.7900325230816138,-0.7900325230816138,1073.2983661873068,2117.8415834677817,1116,-16.59068298471389,,1170.6283538120933
20,197.11883,1083,1086,0.798472358442206,0.26615745281406866,1074.5154348144674,2711.876885184017,1095,3.193889433768824,,1216.7322574248205
21,197.662165325,1089,1086,0.7981102791346143,-0.2660367597115381,1075.552696298645,3346.0283348624234,1094,-1.3301837985576905,,1265.598799371385
22,198.2053953,1083,1086,0.8040599544843242,0.26801998482810807,1076.4179128061478,4016.3532446424924,1096,3.484259802765405,,1316.9331695393842
23,198.74851992499998,1066,1078,0.8074165803696804,0.0672847150308067,1077.1188465032842,4718.908926663733,1089,1.547548445708554,,1370.4405578164174
24,199.2915392,1068,1086,0.8060625325032217,0.044781251805734536,1077.6632595563622,5449.7526930656295,1101,1.4777813095892396,,1425.8261540900821
25,199.83445312499998,1098,1117,0.8122546130835153,0.04275024279386923,1078.0589141316696,6204.9418559875585,1122,1.0260058270528614,-inf,1482.79514824795
26,200.3772617,1109,2059,0.8144257223941842,0.0008572902340991412,1078.4506330834013,6874.964234750373,1185,0.06515405779153474,-inf,1533.392013409108
27,200.919964925,1089,5964,0.8150182986479615,0.0001671832407482998,1078.2127794513826,7559.602663706848,1459,0.061857799076870924,-inf,1584.0066592674502
28,201.4625628,1069,10436,0.8232603193402961,8.788943304583069e-05,1077.7992480010664,8260.155020498607,1777,0.06222571859644813,-inf,1635.4388094860271
29,202.005055325,1057,12330,0.8194894939197722,7.269488990683689e-05,1077.6234342793514,8975.529321162256,1928,0.06331724910885493,-inf,1687.9460463430332
30,202.5474425,1061,13171,0.8269202298982968,6.828408174222104e-05,1077.5512695644088,9704.31305352311,2010,0.06480159357336776,-inf,1741.1701510792664
31,203.089724325,1063,13796,0.8298864771900701,6.517603684835232e-05,1076.9437812860788,10446.959659335233,2060,0.06498050873780727,-inf,1794.7980248702913
32,203.63190079999998,1073,14404,0.8293789756785952,6.221431068026369e-05,1076.0395931957482,11203.69886067613,2095,0.06358302551522949,inf,1848.7079888558842
33,204.173971925,1081,14858,0.8303112569560028,6.0267928936343386e-05,1075.7388162812088,11971.958187048174,2133,0.06340186124103324,inf,1903.9454347776482
34,204.71593769999998,1082,15248,0.832804584655424,5.878897251556007e-05,1075.6112256223037,12742.325896396049,2175,0.06425634695950715,inf,1959.803166549601
35,205.257798125,1090,15573,0.8371769300637781,5.780411034065995e-05,1075.2695191283856,13508.983872794142,2193,0.06375793370574794,inf,2015.452331876108
36,205.7995532,1085,15966,0.8381556767340916,5.632388124011099e-05,1074.8500985299572,14266.363020679697,2196,0.0625758320577633,inf,2070.6249518674995
37,206.34120292499998,1076,16536,0.840625124319978,5.437419950323273e-05,1074.5645654488003,15016.482842193192,2234,0.0629653230247435,inf,2125.416181566926
38,206.88274729999998,1068,17114,0.8415937915656597,5.244882161072291e-05,1074.3412308319348,15758.37953294495,2283,0.06372531825702833,-0.02588156436381411,2178.912614102203
39,207.424186325,1064,17444,0.8431564976534377,5.147475565649803e-05,1073.7124510181225,16482.210219936715,2293,0.06326247470183607,0.028229041488720026,2230.04002355655
40,207.96552,1069,17750,0.844165982526256,5.0606437415398115e-05,1072.8832136628032,17186.766427325318,2304,0.06249895020801667,0.1402410889308732,2280.171713968562
41,208.506748325,1070,18090,0.8476484869242688,4.980308383808864e-05,1072.1177150105118,17874.645677138436,2333,0.06290129488750595,0.2344659754717802,2329.7711386440924
42,209.0478713,1077,18456,0.8491768105118729,4.886223663685326e-05,1071.7227796778884,18543.051009082523,2375,0.06342318315463553,0.31326826880707687,2377.9290810663433
43,209.588888925,1064,18973,0.8502736512177026,4.747744995352631e-05,1071.9713923304964,19185.486692789957,2406,0.0637147378376323,0.40578632806528664,2424.1682484314015
44,210.12980119999997,1048,19372,0.8513731200582484,4.646218729852916e-05,1072.8831683616638,19797.769938163565,2422,0.06383904534817907,0.41940920576015733,2468.413757955965
45,210.670608125,1049,19803,0.8534308197221572,4.5506602310022246e-05,1073.9205191510362,20368.453101995125,2455,0.06398228284789127,-0.06963554744774136,2510.122426328974
46,211.2113097,1048,20215,0.8557212941711507,4.464555194715661e-05,1074.9650954721305,20895.36573874793,2482,0.06402172149222257,-0.015628817099471934,2548.6256087340107
47,211.751905925,1055,20437,0.8575135521308375,4.4242779492871604e-05,1076.2571066162109,21376.328455910254,2500,0.06393081636719947,-0.09151311970480933,2583.652268454502
48,212.29239679999998,1079,20770,0.8580327959771828,4.357487156453115e-05,1077.403044236542,21801.177240707188,2528,0.06313998889700564,-0.021053562789607884,2614.2329384583522
49,212.83278232499998,1082,21205,0.8587529108532552,4.26751931050666e-05,1078.137194500421,22174.001291082044,2555,0.0628605594437631,0.005511204876556479,2640.6441142494227
50,213.37306249999997,1077,21652,0.8598387128136875,4.17904599180407e-05,1078.5920858909394,22496.981018822196,2578,0.0627274803369791,0.03784859246452443,2663.40376905474
51,213.91323732499998,1086,22188,0.8611437003932625,4.0808629532426425e-05,1079.429160343362,22762.18616503161,2612,0.06227396866648272,0.06348194671254415,2681.506806496132
52,214.45330679999998,1101,22841,0.8624756676121401,3.967229381840571e-05,1080.387573897463,22999.17531540874,2680,0.06264255193926262,0.06354763752382853,2697.781784411826
53,214.993270925,1109,23391,0.8630074298534857,3.8731147556479926e-05,1080.0238510498334,23307.910371695398,2734,0.06293811477927988,0.06352602101731021,2718.467281252071
54,215.5331297,1092,23922,0.8629495266956824,3.779892801995981e-05,1078.7935853586512,23723.717230287883,2767,0.06331320443343268,0.0634880206156746,2745.6119051393616
55,216.07288312499998,1073,24441,0.8648478670709356,3.7009922418304334e-05,1078.3601440576024,24179.145326054488,2799,0.06387912609399328,0.06347599758085307,2777.066570024183
56,216.61253119999998,1085,24842,0.8650803831098881,3.6413704723234756e-05,1079.191918276724,24641.730390268844,2835,0.06372398326566082,0.06351074147671401,2810.8405626400963
57,217.152073925,1098,25105,0.8652291434094919,3.604070243718465e-05,1080.5372488617882,25113.358128156444,2871,0.06390016542112839,0.0635539472386273,2845.8386146911043
58,217.69151129999997,1085,25348,0.8680312398394996,3.577592382803032e-05,1082.0928673355925,25596.022401412905,2883,0.06432511104279852,0.06354121022721809,2880.6923146616587
59,218.230843325,1079,25802,0.868212549145114,3.5117605029531774e-05,1083.7252259394118,26089.824095675507,2909,0.06426521720404314,0.0635108976147606,2915.921017463533
60,218.77006999999998,1087,26355,0.868144571802742,3.4357470785291356e-05,1085.3385354141449,26593.927767332836,2951,0.06404232554378309,0.06350349559761506,2952.242474348173
61,219.30919132499997,1096,27016,0.8681762475955156,3.349445399674057e-05,1086.940927314301,27102.188701895335,3003,0.06387392377178427,0.06348091383451761,2988.478878343733
62,219.84820729999998,1087,27514,0.868951283960652,3.288119286943853e-05,1088.2992366757815,27614.952252598625,3020,0.06355934581662469,0.06343434112619872,3024.8063829304724
63,220.38711792499998,1079,27917,0.8691522224557424,3.238513385705874e-05,1089.532288387032,28140.183877323976,3039,0.06347486235983513,0.06339331813944893,3062.03155224348
64,220.9259232,1091,28561,0.8692686507714266,3.16442901627749e-05,1090.3073682302902,28683.438492377536,3102,0.06363666751734033,0.06336547101938662,3100.316949421219
65,221.464623125,1098,29169,0.8701622824311823,3.099862072712701e-05,1090.5836825295949,29235.329837594854,3147,0.06351617386988324,0.06333420912256495,3139.017803347694
66,222.0032177,1093,29573,0.86932404321908,3.052401837145646e-05,1090.4789462954784,29790.562911956666,3166,0.06327629008402924,0.06328112882725977,3177.366123807953
67,222.54170692499997,1087,29935,0.8705973257298546,3.0178775850313873e-05,1090.286212598226,30344.494258080005,3188,0.06340560806150945,0.06323068051053321,3215.462230175027
68,223.0800908,1087,30378,0.8704844215444587,2.9718494470808736e-05,1090.1839679267725,30898.27860200625,3225,0.06353814117858908,0.06319752711997219,3254.175066252853
69,223.61836932499997,1091,30822,0.8703398065724872,2.9273815430778892e-05,1089.4962513307,31453.15388796968,3263,0.06358272711565176,0.06317029950344458,3292.5794015718866
70,224.1565425,1082,31523,0.8697053263836744,2.857019566977676e-05,1088.2888627148764,32005.30378943969,3300,0.06336869399556486,0.06313910159725732,3330.0579628077003
71,224.69461032499999,1071,32195,0.8700422735223692,2.795406353689658e-05,1087.0229223764768,32556.374889577848,3323,0.0629525510850911,0.06310325704876177,3367.114974291539
72,225.23257279999999,1068,32838,0.8700397124616915,2.7385574833543957e-05,1085.7171623366116,33102.04444041704,3362,0.06282250866814984,0.06305703686164116,3403.1623592832707
73,225.77042992499997,1066,33732,0.8700678242154535,2.6635272889715712e-05,1084.4949149470901,33637.234886406746,3430,0.06296578511128795,0.06301377090482084,3438.6950780311467
74,226.30818169999998,1059,34379,0.8699872642519537,2.611006195233955e-05,1083.7575709528887,34163.02652381642,3472,0.06300357949099533,0.06295357503774812,3473.878910054521
75,226.84582812499997,1065,34819,0.8700242014773532,2.577543999162627e-05,1082.786246574081,34683.123173797154,3505,0.0628920735795681,0.06288266906668527,3508.2997576388375
76,227.3833692,1082,35395,0.8696880407569096,2.5345730211782986e-05,1081.6009875648165,35193.12113524588,3576,0.06321225114818677,0.0627993906995538,3541.455321751275
77,227.92080492499997,1096,35810,0.87010037851645,2.5064826252130262e-05,1080.441822011803,35688.78158055607,3591,0.062536741499065,0.06271027305925775,3573.777322249586
78,228.45813529999998,1132,36085,0.8693067287349536,2.487073294810041e-05,1079.7308659312573,36172.90466375161,3625,0.062002737239614324,0.0626480174443859,3606.7563704726476
79,228.99536032499998,1154,36374,0.8691277262341458,2.467710750238915e-05,1079.7173208905997,36639.60105551584,3684,0.062433081981044546,0.06260854951602786,3640.0829010848915
80,229.53248,1123,36870,0.86926662631248,2.431719098980278e-05,1079.3908129289246,37082.89096015694,3686,0.06232496050686453,0.06257539097946765,3671.6536048380913
81,230.069494325,1084,37613,0.8686441253792921,2.3779575826857896e-05,1077.9003148428976,37507.691250084215,3697,0.06213603163557968,0.06256188891282663,3701.5050850528187
82,230.60640329999998,1063,38158,0.868302707705708,2.340754030747292e-05,1076.7604702258054,37903.86294140225,3716,0.06210020443572566,0.06257002687481503,3730.5685972501497
83,231.143206925,1059,38654,0.8687016218294412,2.3106839256003223e-05,1076.452150671569,38254.70642596588,3769,0.06261953438376873,0.06261635542388465,3758.5750526625025
84,231.67990519999998,1059,38992,0.8683284847277679,2.289111023983782e-05,1075.4996715667191,38560.35069876933,3811,0.06299633538003367,0.06269086872091045,3783.5846791546073
85,232.216498125,1056,39250,0.8683608504247778,2.2735530460930456e-05,1074.172552039663,38836.32591904612,3834,0.0631593036204648,0.06277138724864059,3806.3098144917612
86,232.75298569999998,1061,39596,0.868249886800152,2.253146196445185e-05,1073.3123287050464,39085.92233119588,3872,0.06333593958207415,0.06284950049410781,3827.6322227003275
87,233.289367925,1062,39953,0.867778574191436,2.231309491119889e-05,1073.0757435049286,39301.865614169445,3883,0.06294524074449206,0.06294023121906961,3847.7319305079786
88,233.8256448,1053,40185,0.8676471171202086,2.2172317211494648e-05,1072.8306190400483,39473.72128473955,3895,0.06301372551506779,0.06305015433263575,3865.3841310108205
89,234.36181632499998,1054,40191,0.8677489292852631,2.2172085987307742e-05,1072.5476681238326,39595.98650025972,3911,0.06334564966573822,0.06317253452035103,3879.7460644634466
90,234.89788249999998,1060,40178,0.8672589311593729,2.2170329034188174e-05,1072.7335386984778,39688.7962807757,3904,0.06305241577323116,0.06331922776827008,3893.4004620715464
91,235.433843325,1073,40210,0.8668004592010585,2.2147851373407734e-05,1073.0825160252575,39758.81906724878,3914,0.06292204575185137,0.06347995956408736,3906.150648938746
92,235.9696988,1074,40340,0.8665578153052318,2.206890987890877e-05,1073.2880019932297,39791.67269926763,3933,0.06309501334380017,0.06365190177662151,3916.5888468594235
93,236.505448925,1076,40371,0.8666098942893835,2.2053948194156598e-05,1072.9241658927515,39781.72069582473,3932,0.06298607604251125,0.06385850370654296,3924.561915332095
94,237.04109369999998,1081,40439,0.8664654382940954,2.201497632740727e-05,1072.182269134048,39736.53101995438,3948,0.06311693713067665,0.06410290810591336,3931.168859996754
95,237.576633125,1078,40451,0.8658853313998153,2.1991855621868167e-05,1072.1369906452942,39653.69587080039,3966,0.06351247903595526,0.06437605838419677,3936.8411289043165
96,238.11206719999998,1074,40350,0.8659634438688039,2.2048157752031872e-05,1071.9028517067,39536.42560420318,3980,0.06407194642740462,0.06466331792474231,3940.3668712767376
97,238.64739592499998,1066,40285,0.8653764850454776,2.2065235856229827e-05,1071.3602120093115,39396.81356316036,4006,0.06487179341731569,0.06495500433863827,3942.0158780492575
98,239.1826193,1061,40084,0.865240351462597,2.2172573904174384e-05,1070.9128406079208,39246.697365738,4001,0.06518736727827269,0.06524741146789152,3943.1198894651448
99,239.71773732499997,1062,39815,0.8654717432609225,2.2333025656360087e-05,1070.179596366828,39104.60520057005,3992,0.06543576517313505,0.06555759378129146,3945.5442478877585
100,240.25275,1070,39383,0.8654328986505,2.258849212148618e-05,1068.7442750684972,38964.56397653326,3989,0.06593580850261815,0.06589831748291823,3948.9027384537962
101,240.787657325,1070,38977,0.8649750843904328,2.2818347122970237e-05,1067.4375184035675,38818.73591700757,3993,0.066698028640442,0.06626035017166317,3952.9982785566303
102,241.3224593,1077,38700,0.8650023747478218,2.299131846869792e-05,1067.0473623411426,38683.47230967785,3988,0.06692772806237965,0.06663519121232936,3959.30435570447
103,241.85715592499997,1079,38376,0.864426750181391,2.3176843986953133e-05,1067.3328274705905,38554.9834650834,3963,0.06684201805837284,0.06699649054254618,3966.34256721549
104,242.3917472,1067,38087,0.8640504083213235,2.334009746951171e-05,1068.6194251285215,38424.57281025544,3931,0.06684603915268154,0.06733901998894755,3973.615914290169
105,242.92623312499998,1062,37931,0.8638615542876957,2.343056644573207e-05,1070.2119413803052,38302.050261613345,3947,0.06759718419593702,0.06768895912696395,3982.307254977386
106,243.46061369999998,1082,37538,0.8647030136247108,2.371908639523565e-05,1071.5375206686244,38205.46811932246,3961,0.06828724973188344,0.06803146291179052,3992.565652676088
107,243.994888925,1083,37298,0.863747888775786,2.385055608934933e-05,1072.0796167523408,38136.48284219275,3945,0.06826029152771779,0.0683576317329818,4003.5909986635393
108,244.52905879999997,1070,37446,0.8628771528607923,2.3721056544446675e-05,1072.1484744841127,38087.694239959405,3934,0.06793710594329527,0.06866460307215053,4015.0274298397835
109,245.063123325,1081,37549,0.8633129275796555,2.3673163529111976e-05,1072.42059842803,38066.20528211211,3963,0.06822605729090071,0.06896450631882631,4028.3897483520936
110,245.59708249999997,1090,37297,0.8623491049005171,2.3817192943367777e-05,1072.3412081813651,38079.46454053247,3982,0.0688793219922196,0.06926609457038872,4044.3640399555275
111,246.130936325,1085,36988,0.862505803534046,2.402322378447612e-05,1072.0492423384242,38141.00269541706,3988,0.06973941864633418,0.06955702620882419,4063.5399216289516
112,246.66468479999997,1076,37046,0.8631762817630669,2.399711653497545e-05,1071.8747423497493,38254.8187727914,4001,0.07019156586480318,0.0698361257882274,4086.424267820257
113,247.19832792499997,1069,37368,0.8629529675416884,2.377346393954898e-05,1071.5492989648483,38419.90889940809,4023,0.07022681247742768,0.0700985465705705,4112.749371446613
114,247.7318657,1061,37875,0.8621360146885437,2.3418699806827394e-05,1070.647307979775,38632.90409748731,4079,0.07067763601700508,0.07034059662410508,4141.4394663525
115,248.265298125,1055,38032,0.8624878814902607,2.3324982597026818e-05,1069.9176198781195,38887.46252463175,4099,0.07100124702534963,0.07055351094088744,4172.127409454267
116,248.79862519999998,1056,37988,0.862427427307537,2.335176614609382e-05,1069.8340392760674,39176.59210854078,4114,0.0714097008747549,0.07071493906573456,4203.674330109322
117,249.33184692499998,1056,38283,0.8621956715984717,2.316049296474257e-05,1070.0422659629685,39490.66864481566,4155,0.07177436769773722,0.0708271075978542,4235.213844028097
118,249.8649633,1070,38816,0.8614594306460737,2.2822535650031095e-05,1070.2846497089197,39847.42961335401,4210,0.07166276194109764,0.07089353669859173,4267.794015719413
119,250.397974325,1086,39282,0.861591555373828,2.2557114760022727e-05,1070.5115404652224,40251.77480803565,4250,0.07137071110071191,0.07091273763393416,4301.6885093659275
