,x_(nm),baseline_dark,baseline_light,baseline_mirror,baseline_calibration,baseline_dark_smoothed,baseline_light_smoothed,raw_signal,calibrated_signal,calibrated_signal_smoothed,raw_signal_smoothed
0,186.23,1285,1296,0.3621226043733797,0.03292023676121633,1259.9890656472226,4200.683457127419,1296,0.3621226043733796,,1556.7777904259592
1,186.775442325,1277,1293,1.18800459154587,0.07425028697161687,1266.8757025274224,3200.7946327442532,1292,1.113754304574253,,1467.0628905521248
2,187.3207793,1282,1294,1.908567993433533,0.15904733278612773,1273.3110702110223,2325.866411354099,1295,2.0676153262196606,,1388.9272704792286
3,187.86601092499998,1284,1290,1.7279185264672412,0.28798642107787353,1279.3089533184664,1571.6346186370106,1296,3.4558370529344824,,1321.9625481671462
4,188.41113719999998,1278,1272,1.043047789334166,-0.17384129822236102,1284.8831364701982,933.8350802730429,1301,-3.9983498591143034,,1265.760341575753
5,188.956158125,1268,1271,0.840365554154959,0.2801218513849863,1290.0474042866622,408.20362194224936,1309,11.484995906784437,,1219.9122686649243
6,189.50107369999998,1268,1277,0.8202728553565946,0.09114142837295496,1294.8155413883019,-9.523930675315569,1308,3.6456571349181983,,1184.0099473945359
7,190.045883925,1285,1284,0.837733819880384,-0.837733819880384,1299.2013323955612,-323.61175189959795,1310,-20.9433454970096,,1157.644995724463
8,190.59058879999998,1302,1292,0.8116271105193998,-0.08116271105193998,1303.218561928884,-538.3240160505411,1310,-0.6493016884155198,,1140.4090316145807
9,191.135188325,1315,1300,0.8262856362484797,-0.05508570908323198,1306.8810146087142,-657.9248974480934,1311,0.22034283633292792,,1131.8936730247653
10,191.67968249999998,1318,1315,0.8012221689422371,-0.26707405631407904,1310.2024750554958,-686.6785704121994,1312,1.6024443378844744,,1131.6905379148916
11,192.22407132499998,1308,1312,0.7775424502505143,0.19438561256262857,1313.1967278896725,-628.8492092628048,1306,-0.38877122512525714,,1139.3912442448352
12,192.7683548,1303,1300,0.7753865851703869,-0.25846219505679563,1315.8775577316883,-488.70098831985524,1303,-0.0,,1154.5874099744717
13,193.312532925,1299,1295,0.7956261498651602,-0.19890653746629006,1318.258749201987,-270.49808190329804,1301,-0.3978130749325801,,1176.8706530636764
14,193.8566057,1303,1303,0.7908861747409445,inf,1320.3540869210128,21.495335666924802,1300,-inf,,1205.8325914723248
15,194.400573125,1312,1309,0.7942231778648126,-0.26474105928827085,1322.1773555092093,383.01509007086224,1317,-1.3237052964413543,,1241.0648431602924
16,194.9444352,1319,1306,0.7947581770897779,-0.061135244391521376,1323.7423395870203,809.7970069885741,1324,-0.3056762219576069,,1282.1590260874545
17,195.488191925,1330,1318,0.7914877943554887,-0.06595731619629072,1325.06282377489,1297.5769121001103,1327,0.19787194858887217,,1328.706758213687
18,196.0318433,1342,1328,0.7911116722494277,-0.056507976589244835,1326.1525926932618,1842.0906310855307,1337,0.2825398829462242,,1380.2996574988647
19,196.575389325,1347,1332,0.7900325230816138,-0.052668834872107585,1327.0254309625802,2439.0739896248815,1339,0.4213506789768607,,1436.5293419028635
20,197.11883,1340,1327,0.798472358442206,-0.06142095064940046,1327.6951232032886,3084.262813398226,1327,0.798472358442206,,1496.9874293855582
21,197.662165325,1342,1322,0.7981102791346143,-0.03990551395673071,1328.1754540358313,3773.3929280856096,1334,0.3192441116538457,,1561.2655379068253
22,198.2053953,1342,1325,0.8040599544843242,-0.04729764438143084,1328.480208080652,4502.200159367093,1350,-0.3783811550514467,,1628.9552854265396
23,198.74851992499998,1331,1321,0.8074165803696804,-0.08074165803696805,1328.6231699581942,5266.420332922731,1349,-1.453349844665425,,1699.6482899045764
24,199.2915392,1336,1316,0.8060625325032217,-0.040303126625161084,1328.6181242889024,6061.789274432573,1344,-0.3224250130012887,,1772.9361693008118
25,199.83445312499998,1362,1331,0.8122546130835153,-0.02620176171237146,1328.478855693195,6884.042809576528,1363,-0.02620176171237146,-inf,1848.410541575085
26,200.3772617,1346,2370,0.8144257223941842,0.0007953376195255705,1328.840811796391,7614.887902330599,1453,0.08510112528923605,-inf,1914.8488980497493
27,200.919964925,1325,6608,0.8150182986479615,0.00015427187178647766,1328.3089084690223,8364.149697614735,1837,0.07898719835467656,-inf,1982.7408548324609
28,201.4625628,1317,11505,0.8232603193402961,8.080686291129722e-05,1327.437201295587,9132.762689981479,2263,0.07644329231408717,-inf,2052.1362431764765
29,202.005055325,1318,13541,0.8194894939197722,6.704487391964102e-05,1327.0620172597087,9918.705701148196,2443,0.07542548315959614,-inf,2122.5419828308277
30,202.5474425,1317,14431,0.8269202298982968,6.305629326660797e-05,1326.9722983532781,10717.817776166867,2533,0.07667645261219529,-inf,2193.9713923304753
31,203.089724325,1313,15124,0.8298864771900701,6.0088804372606626e-05,1326.2686584067333,11530.144397381373,2609,0.07787509046689818,-inf,2265.9710299213593
32,203.63190079999998,1323,15824,0.8293789756785952,5.719460559124165e-05,1325.0648938820557,12356.736211465482,2682,0.0777274689984974,-inf,2338.6006931073866
33,204.173971925,1326,16371,0.8303112569560028,5.518851824233984e-05,1324.4844050827624,13195.05270787535,2730,0.07748467961224513,-inf,2412.0062968583197
34,204.71593769999998,1326,16757,0.832804584655424,5.396957971974752e-05,1324.555618473779,14036.751772406808,2741,0.07636695530344274,inf,2485.4381526194907
35,205.257798125,1320,17061,0.8371769300637781,5.318448193023176e-05,1324.6773199845723,14876.237740378885,2763,0.07674520742532444,inf,2558.848150580938
36,205.7995532,1322,17526,0.8381556767340916,5.172523307418487e-05,1325.0470225825925,15708.337742643922,2809,0.0769154215813129,inf,2631.113683209082
37,206.34120292499998,1329,18161,0.840625124319978,4.994208200570212e-05,1325.1431742508069,16533.154522185912,2856,0.07626155922270714,inf,2701.776393576246
38,206.88274729999998,1322,18836,0.8415937915656597,4.805263169839327e-05,1324.7818523635617,17348.492627239244,2906,0.07611536861025493,inf,2770.803664862118
39,207.424186325,1309,19260,0.8431564976534377,4.6969890126089784e-05,1324.1595959138122,18143.235475321857,2926,0.07595031233388717,inf,2837.985299780235
40,207.96552,1298,19528,0.844165982526256,4.6306417033804496e-05,1323.7763709257033,18916.888423293487,2943,0.0761740560206084,0.0865534866888546,2903.0585290719505
41,208.506748325,1302,19852,0.8476484869242688,4.569533622233255e-05,1323.5468300527505,19672.581961085943,2967,0.0760827348101837,0.05325578756581004,2966.052617273267
42,209.0478713,1311,20306,0.8491768105118729,4.470528089033287e-05,1323.342635167249,20406.134114022574,3011,0.07599897751356588,0.045127709218606746,3026.382726675518
43,209.588888925,1317,20881,0.8502736512177026,4.3461135310657464e-05,1323.1891096060813,21111.38009920909,3058,0.07566583657585464,0.05129942052391168,3083.5668531562974
44,210.12980119999997,1317,21352,0.8513731200582484,4.249429099367349e-05,1323.3389204738244,21785.660105551236,3078,0.07483244643985902,0.06112919734723814,3137.720197512907
45,210.670608125,1325,21844,0.8534308197221572,4.1592222804335356e-05,1323.9561484971093,22415.988765317015,3121,0.0746996321565863,0.0769093241321807,3187.8694421164078
46,211.2113097,1327,22279,0.8557212941711507,4.0841986167007956e-05,1324.648327255405,22998.14643593242,3166,0.07510841256112763,0.10726018035553737,3233.905003510776
47,211.751905925,1321,22533,0.8575135521308375,4.042586989113886e-05,1325.4743029286933,23528.178418536776,3184,0.07531339560719169,0.12675580815049536,3275.40370110302
48,212.29239679999998,1326,22874,0.8580327959771828,3.9819602560663765e-05,1326.489841219481,23996.24041314593,3219,0.0753785076473365,0.1255804699454106,3310.9940655506853
49,212.83278232499998,1324,23388,0.8587529108532552,3.892099849770011e-05,1327.3719676549608,24407.48676074156,3249,0.0749229221080727,0.08737640859053969,3340.8269949488586
50,213.37306249999997,1328,23923,0.8598387128136875,3.805437985455577e-05,1328.4634533058252,24763.36345104032,3285,0.07447242137536564,0.07708794795402668,3364.743776755921
51,213.91323732499998,1330,24476,0.8611437003932625,3.720486046804037e-05,1329.981132075446,25055.61086321273,3329,0.0743725160756127,0.07411707243899222,3382.884097034976
52,214.45330679999998,1350,25124,0.8624756676121401,3.62781049723286e-05,1331.2332329157823,25318.694239959652,3370,0.07328177204410377,0.07415643625598915,3398.2020657318885
53,214.993270925,1367,25679,0.8630074298534857,3.5497179576072954e-05,1331.6163899521816,25661.078438922246,3408,0.0724497435147649,0.07402654122625246,3419.346984076584
54,215.5331297,1353,26217,0.8629495266956824,3.470678598357796e-05,1331.3891367867645,26118.750503974672,3453,0.07288425056551372,0.07382139364558453,3449.659697841335
55,216.07288312499998,1334,26798,0.8648478670709356,3.396355117306533e-05,1331.7586808307974,26616.14761376198,3494,0.07336127053382112,0.073583672153487,3483.9644612561337
56,216.61253119999998,1338,27303,0.8650803831098881,3.3317172467163035e-05,1332.6953045368834,27118.531314412037,3547,0.07359763397996315,0.07338212416134113,3519.6180434437256
57,217.152073925,1348,27665,0.8652291434094919,3.2877195098586155e-05,1333.2754535776317,27628.469636910835,3581,0.07341477665514289,0.07323236688837484,3556.7179777570727
58,217.69151129999997,1338,27979,0.8680312398394996,3.2582532181205646e-05,1333.7637319078317,28151.336564814064,3601,0.07373427032606837,0.0730895565370468,3595.218124985774
59,218.230843325,1328,28450,0.868212549145114,3.201137634190377e-05,1334.5310652562657,28688.847176605937,3632,0.07375421109174629,0.07293099754293961,3634.4280504653993
60,218.77006999999998,1337,29004,0.868144571802742,3.137834141044356e-05,1335.2433350698514,29234.018233708015,3653,0.07267223870658729,0.07273413814748883,3673.1391424493627
61,219.30919132499997,1331,29647,0.8681762475955156,3.066027149299038e-05,1335.524473940494,29777.225395818135,3701,0.07266484343838721,0.07256123176035809,3711.7842533238995
62,219.84820729999998,1328,30166,0.868951283960652,3.0132161868390737e-05,1336.200638746039,30323.12815692256,3748,0.07291983172150558,0.07239177551353286,3750.8022831773496
63,220.38711792499998,1335,30623,0.8691522224557424,2.967605239196061e-05,1337.3430428775027,30879.937688282265,3788,0.07279535651747938,0.07220100216937658,3790.4417767106115
64,220.9259232,1336,31353,0.8692686507714266,2.8959211472546443e-05,1338.1796416679624,31454.513941425022,3824,0.07205051814369555,0.07200976857195007,3831.2794400778434
65,221.464623125,1327,32019,0.8701622824311823,2.835143628408648e-05,1338.4986522910795,32040.232779903803,3857,0.0717291337987388,0.07182494141236478,3872.7720899679884
66,222.0032177,1326,32450,0.86932404321908,2.793098712309086e-05,1338.1981245328066,32626.892817503733,3896,0.07178263690634351,0.07165708138218405,3914.176810346705
67,222.54170692499997,1329,32857,0.8705973257298546,2.7613465038373974e-05,1337.5970010645513,33209.64909737417,3935,0.07196068989000258,0.07149139177305658,3954.7788171871766
68,223.0800908,1338,33333,0.8704844215444587,2.72068892497096e-05,1336.7996104101762,33791.31522797734,3975,0.07174456695148422,0.07131351158672485,3994.330788919265
69,223.61836932499997,1343,33740,0.8703398065724872,2.6864827193026738e-05,1335.9959681985745,34372.77517044488,4006,0.0715410348150302,0.07112327021741577,4033.301161974146
70,224.1565425,1337,34442,0.8697053263836744,2.6271116942566812e-05,1335.4084577226863,34953.5398989778,4050,0.07127354026518376,0.07091680880898918,4072.0368071756225
71,224.69461032499999,1331,35163,0.8700422735223692,2.571654863804591e-05,1334.748057713626,35533.1470927987,4068,0.07038619362233166,0.07072393648592798,4111.2373100182685
72,225.23257279999999,1331,35900,0.8700397124616915,2.516820597823748e-05,1334.0352442863682,36107.12645812974,4103,0.0697662669716743,0.07055071916439273,4150.299893542244
73,225.77042992499997,1327,36881,0.8700678242154535,2.4471728194168125e-05,1333.322181702844,36669.675462637184,4186,0.06996467090712667,0.07038095926729923,4188.129765113513
74,226.30818169999998,1321,37571,0.8699872642519537,2.3999648669019413e-05,1332.715214387616,37220.08364855305,4240,0.07005497446486766,0.07022433931233167,4225.448209472387
75,226.84582812499997,1318,38046,0.8700242014773532,2.3688308687577684e-05,1331.8907563024954,37766.97979569114,4282,0.07021214694998025,0.07007026230923792,4262.511291308894
76,227.3833692,1333,38645,0.8696880407569096,2.3308534540011515e-05,1330.5558902806151,38307.03198260363,4331,0.06987898655095452,0.06992173842844657,4298.890846904717
77,227.92080492499997,1332,39012,0.87010037851645,2.3091835947888798e-05,1329.0130467280997,38833.230016534166,4345,0.06957570171098895,0.06979396197460769,4334.852635393697
78,228.45813529999998,1344,39193,0.8693067287349536,2.2967759484661514e-05,1328.5473510158527,39348.62454415653,4390,0.06995979539027897,0.06965249292170396,4370.759813359223
79,228.99536032499998,1360,39506,0.8691277262341458,2.2784242810101866e-05,1328.7243199166203,39847.19848694119,4432,0.06999319391263294,0.06950393436500973,4406.025663095343
80,229.53248,1343,40066,0.86926662631248,2.2448328546664256e-05,1328.6957122471376,40321.724365217015,4452,0.06979185345157918,0.06937748156509943,4440.013386486585
81,230.069494325,1321,40873,0.8686441253792921,2.1962078412704594e-05,1328.183016602842,40781.30213594794,4488,0.06955390233303545,0.06927449059023409,4473.206074882698
82,230.60640329999998,1325,41487,0.868302707705708,2.162000666564683e-05,1327.814967496407,41216.78090103887,4514,0.06894620125674775,0.0692059889686507,4505.933837685931
83,231.143206925,1336,41967,0.8687016218294412,2.1380266836391946e-05,1327.7235724478217,41611.12663933418,4544,0.06858789601114536,0.06915842771796578,4536.475480758254
84,231.67990519999998,1329,42230,0.8683284847277679,2.1230006227910513e-05,1327.0923010713468,41964.193707670944,4576,0.06893383022202544,0.06914244818427279,4564.2466873541
85,232.216498125,1330,42515,0.8683608504247778,2.1084396028281603e-05,1326.0577363020427,42289.042243311604,4610,0.06915681897276366,0.06916695715819007,4591.059820154389
86,232.75298569999998,1338,42988,0.868249886800152,2.084633581753066e-05,1325.526489841194,42590.15209857446,4635,0.06873036919039859,0.06917234953696805,4616.0033069830815
87,233.289367925,1325,43430,0.867778574191436,2.0609869948733783e-05,1324.814446533305,42860.5942829954,4667,0.0688781853686683,0.06919724437375913,4639.2655326280565
88,233.8256448,1313,43747,0.8676471171202086,2.0446979241179447e-05,1323.9387302090392,43088.961901741,4692,0.06909034285594536,0.06925901006700998,4660.405354594577
89,234.36181632499998,1312,43844,0.8677489292852631,2.0402260163765238e-05,1323.5171578064935,43270.4274842004,4699,0.06910245517467287,0.06933981600492148,4678.845432512538
90,234.89788249999998,1310,43839,0.8672589311593729,2.0392177835344656e-05,1323.4601010215151,43430.52279779753,4687,0.0688643845499589,0.0694313441998073,4696.718068359329
91,235.433843325,1311,43909,0.8668004592010585,2.0348383942932967e-05,1322.9340868422587,43575.1343631784,4686,0.06867579580739877,0.0695508295485313,4714.315703639856
92,235.9696988,1316,44095,0.8665578153052318,2.025661692197648e-05,1322.1525289360773,43683.3191465257,4709,0.06873070121626619,0.06970098416583165,4730.16541711015
93,236.505448925,1325,44238,0.8666098942893835,2.019457726771336e-05,1321.0631271376224,43750.491743866514,4761,0.0693885674918631,0.06987221348805797,4743.056535821785
94,237.04109369999998,1327,44421,0.8664654382940954,2.010640549250697e-05,1320.171419511175,43784.55557317183,4805,0.06993007830293924,0.07005157813380238,4753.849939975899
95,237.576633125,1315,44460,0.8658853313998153,2.006919298643679e-05,1319.5147568461095,43780.65165688834,4808,0.0701016911016237,0.07025029557378183,4762.752157466669
96,238.11206719999998,1321,44456,0.8659634438688039,2.007565651718567e-05,1318.7037985005068,43741.92380348282,4803,0.0699034359928405,0.07046581383138943,4769.5472377629385
97,238.64739592499998,1322,44464,0.8653764850454776,2.00587938678197e-05,1318.0031031280184,43680.2423157934,4817,0.07010548456802985,0.07067782848461268,4774.444834537498
98,239.1826193,1312,44377,0.865240351462597,2.009149776994304e-05,1317.8401322793013,43611.425921311085,4838,0.07084262113681916,0.0708691263074404,4778.495232054994
99,239.71773732499997,1308,44273,0.8654717432609225,2.0143645834072443e-05,1317.5468980044595,43553.88219438635,4847,0.07128836260678238,0.07107080344760208,4784.019185032412
100,240.25275,1308,43925,0.8654328986505,2.0307222438240608e-05,1316.7271512378284,43497.58755577619,4836,0.07164388076211287,0.0713008599265321,4790.584090239779
101,240.787657325,1326,43589,0.8649750843904328,2.0466485682285517e-05,1316.3186935151166,43437.40628326719,4839,0.07189876420186903,0.07154121696962601,4797.639765340007
102,241.3224593,1335,43414,0.8650023747478218,2.0556628597348365e-05,1316.6602188044778,43388.73809146217,4837,0.07198931334791397,0.07177919277220271,4806.298081496658
103,241.85715592499997,1320,43161,0.864426750181391,2.0659801395315387e-05,1317.1537520668394,43342.416974336076,4814,0.07218534607523196,0.07201108199748675,4815.06348954667
104,242.3917472,1319,42953,0.8640504083213235,2.0753480528446067e-05,1317.8069718453169,43286.83197807341,4801,0.0722636192000492,0.0722644377046965,4824.446374776234
105,242.92623312499998,1316,42924,0.8638615542876957,2.0761910072286475e-05,1318.5994699766447,43233.702620670076,4814,0.07262516143285809,0.07253697081206066,4835.416906385103
106,243.46061369999998,1314,42574,0.8647030136247108,2.0957416714122897e-05,1319.484314480484,43201.63824775111,4805,0.07316234174900303,0.07279608216549234,4847.559129312009
107,243.994888925,1312,42391,0.863747888775786,2.1026507187998392e-05,1320.0195021404534,43193.70040091426,4794,0.0732142980286104,0.07303451194022967,4860.346644318011
108,244.52905879999997,1313,42615,0.8628771528607923,2.0891897556069738e-05,1320.5196040680173,43201.23880495512,4823,0.07333056042180477,0.07325986430047009,4874.094430224827
109,245.063123325,1323,42786,0.8633129275796555,2.0821284701532826e-05,1321.2018392262314,43227.144329429066,4860,0.0736448839893216,0.07346819306164973,4888.808421481707
110,245.59708249999997,1328,42637,0.8623491049005171,2.0875574448679877e-05,1321.6596298896663,43277.70570114755,4844,0.07339851976155845,0.07366771465167027,4904.918775057099
111,246.130936325,1321,42370,0.862505803534046,2.101161547258267e-05,1322.232440145844,43366.23465990087,4843,0.07400290969443617,0.07385896560644328,4923.9091485649915
112,246.66468479999997,1322,42420,0.8631762817630669,2.100287804182848e-05,1323.011370585945,43499.45690729039,4862,0.07435018826807283,0.07402316565244457,4945.497610364805
113,247.19832792499997,1325,42789,0.8629529675416884,2.0812101281634392e-05,1323.5966839565763,43677.06473532725,4901,0.07442407418312459,0.07416509378453613,4969.468640286208
114,247.7318657,1317,43349,0.8621360146885437,2.0511420220035774e-05,1323.9725928106839,43894.34702937695,4962,0.07476412670203039,0.07429034160303839,4995.673129629115
115,248.265298125,1305,43395,0.8624878814902607,2.0491515359711585e-05,1324.12088609026,44144.35054021523,4950,0.07469157348614873,0.07439754160821861,5023.553240163893
116,248.79862519999998,1310,43208,0.862427427307537,2.0583976020514988e-05,1324.287526331262,44418.18709370456,4919,0.07428756945803859,0.07446096535338405,5051.143468708141
117,249.33184692499998,1316,43530,0.8621956715984717,2.0424401184404975e-05,1324.4128066320613,44704.67455661425,4942,0.07405887869465244,0.07448001387816496,5077.574848807351
118,249.8649633,1330,44064,0.8614594306460737,2.0158642547996295e-05,1324.697229835305,45022.17656118965,5015,0.07428459778936634,0.07446298400235588,5104.790323676541
119,250.397974325,1336,44494,0.861591555373828,1.9963658079008016e-05,1324.7369136333525,45378.82144555848,5072,0.07458422658317394,0.07443512696650421,5134.277016466866
