,x_(nm),baseline_dark,baseline_light,baseline_dark_smoothed,baseline_light_smoothed,raw_signal,calibrated_signal,calibrated_signal_smoothed,raw_signal_smoothed
0,186.23,1388,1406,1457.6706793021997,4719.209204081593,1318,-3.888888888888889,,1306.054595874795
1,186.775442325,1388,1400,1431.5463046757163,3570.482150570297,1313,-6.25,,1309.355376583789
2,187.3207793,1383,1392,1409.075170038988,2567.1855211105762,1316,-7.444444444444445,,1312.6661722905576
3,187.86601092499998,1381,1386,1390.1194348566712,1704.1626279991287,1314,-13.4,,1315.982525843751
4,188.41113719999998,1382,1389,1374.541258593423,976.2567835326513,1320,-8.857142857142858,,1319.2999800920204
5,188.956158125,1375,1393,1362.2028007138995,378.31130000784106,1318,-3.1666666666666665,,1322.6140778840158
6,189.50107369999998,1374,1399,1352.966220682758,-94.83051027860347,1307,-2.68,,1325.920362068388
7,190.045883925,1396,1407,1346.6936779646549,-448.3253350299856,1324,-6.545454545454546,,1329.2143754937872
8,190.59058879999998,1408,1410,1343.2473320242466,-687.3298619496072,1333,-37.5,,1332.4916610088642
9,191.135188325,1400,1423,1342.4893423261904,-817.0007787407721,1332,-2.9565217391304346,,1335.7477614622692
10,191.67968249999998,1401,1437,1344.2818683351427,-842.4947731067823,1340,-1.6944444444444444,,1338.978219702653
11,192.22407132499998,1388,1431,1348.4870695157601,-768.9685327509378,1352,-0.8372093023255814,,1342.1785785786658
12,192.7683548,1385,1426,1354.9671053326992,-601.578745376547,1349,-0.8780487804878049,,1345.3443809389585
13,193.312532925,1388,1415,1363.584135250617,-345.4820986869072,1335,-1.962962962962963,,1348.4711696321813
14,193.8566057,1398,1408,1374.2003187341702,-5.835280385323131,1336,-6.2,,1351.5544875069847
15,194.400573125,1409,1422,1386.6778152480153,412.20502182490054,1357,-4.0,,1354.5898774120196
16,194.9444352,1419,1431,1400.878784256809,903.4821202404655,1361,-4.833333333333333,,1357.572882195936
17,195.488191925,1435,1435,1416.6653852252077,1462.8393271580662,1367,-inf,,1360.4990447073847
18,196.0318433,1441,1434,1433.8997776178687,2085.119954874403,1374,9.571428571428571,,1363.363907795016
19,196.575389325,1428,1438,1452.4441208994485,2765.16731568617,1375,-5.3,,1366.1630143074808
20,197.11883,1417,1432,1472.1605745346037,3497.8247218900688,1377,-2.6666666666666665,,1368.8919070934292
21,197.662165325,1424,1436,1492.9112979879908,4277.935485782792,1382,-3.5,,1371.5461290015119
22,198.2053953,1425,1447,1514.5584507242665,5100.342919661038,1375,-2.272727272727273,,1374.1212228803793
23,198.74851992499998,1417,1431,1536.9641922080882,5959.890335821502,1361,-4.0,,1376.612731578682
24,199.2915392,1420,1434,1559.9906819041116,6851.4210465608885,1360,-4.285714285714286,,1379.0161979450704
25,199.83445312499998,1436,1463,1583.5000792769636,7769.778364175711,1375,-2.259259259259259,-inf,1381.3271648281689
26,200.3772617,1457,2642,1604.1288364402058,8573.27101406584,1379,-0.06582278481012659,-inf,1383.6178622392085
27,200.919964925,1575,7413,1624.887585222737,9392.75211216544,1380,-0.03340184994861254,-inf,1385.4648123400036
28,201.4625628,1718,13079,1645.4683231782963,10228.706856327239,1383,-0.02948684094709973,-inf,1386.8176629141956
29,202.005055325,1782,15402,1666.2060522321817,11078.422206618287,1391,-0.028707782672540382,-inf,1388.2701986454692
30,202.5474425,1817,16410,1687.0366033205414,11939.125461505128,1413,-0.027684506270129514,-inf,1390.2660988923603
31,203.089724325,1828,17114,1707.58855240206,12808.347437087798,1408,-0.02747612194164595,-inf,1391.5256517701152
32,203.63190079999998,1830,17801,1727.8425105891083,13687.529796824128,1399,-0.026986412873332914,-inf,1391.9005866497275
33,204.173971925,1843,18340,1748.3749575301485,14574.862896101558,1408,-0.026368430623749772,-inf,1392.9263176968636
34,204.71593769999998,1857,18690,1769.10691068877,15458.815080748984,1417,-0.02613913146794986,-inf,1394.4412330969858
35,205.257798125,1862,18926,1789.161317357097,16331.259462275164,1407,-0.0266643225503985,-inf,1396.05379510292
36,205.7995532,1862,19287,1808.5439307798244,17188.330766268442,1395,-0.026800573888091823,-inf,1397.7523613218602
37,206.34120292499998,1876,19896,1827.2863938027695,18031.512333234834,1400,-0.026415094339622643,inf,1399.570681102603
38,206.88274729999998,1892,20584,1845.249813132765,18857.827266755397,1402,-0.02621442328268778,inf,1400.65593784681
39,207.424186325,1884,20918,1861.7845930824803,19656.493374707996,1387,-0.026111169486182622,inf,1400.925728782052
40,207.96552,1876,21113,1877.4074610976104,20426.03676187417,1376,-0.02599157872849197,inf,1401.3186708645453
41,208.506748325,1879,21434,1892.3909261817575,21169.359419238986,1384,-0.02531321912554334,inf,1402.142585335994
42,209.0478713,1894,21828,1906.440349724759,21881.721669799575,1410,-0.02428012441055483,inf,1402.8174590590686
43,209.588888925,1904,22305,1919.4966816915075,22556.62078416229,1411,-0.02416548208421156,-0.10445364614214539,1403.4696369113412
44,210.12980119999997,1913,22719,1931.5428209019087,23192.153434958447,1392,-0.0250408535999231,0.2701821596686896,1404.4126027769332
45,210.670608125,1930,23161,1941.7817391107014,23773.419647103667,1389,-0.02548160708398097,0.22370608419423058,1405.3966794264607
46,211.2113097,1938,23467,1950.1386441368627,24297.57204013634,1393,-0.025314691811045568,0.23640604014714595,1406.3771093342725
47,211.751905925,1935,23599,1956.978912319607,24761.849917324944,1397,-0.024833825701624814,0.21052633762675668,1407.3122834039007
48,212.29239679999998,1926,23885,1961.6852023828021,25154.63666221157,1401,-0.023908192540643927,0.20725669986859238,1407.6145099548985
49,212.83278232499998,1934,24305,1964.063398944446,25481.347799496667,1410,-0.023423181797863304,0.13742262493872695,1407.4225463770142
50,213.37306249999997,1947,24742,1964.7259507576243,25744.765974313763,1409,-0.023601667032243912,0.03687018057886601,1407.298398604698
51,213.91323732499998,1949,25264,1963.7782962241124,25938.939930688757,1406,-0.023289727643148187,-0.02208781900364828,1406.9941561530004
52,214.45330679999998,1960,25849,1961.6409205191137,26100.922648304102,1412,-0.0229394281887061,-0.02283360118784662,1406.6946023692224
53,214.993270925,1974,26331,1960.897483521673,26351.683956601006,1429,-0.02237549780350618,-0.02274707074114883,1405.9007678542846
54,215.5331297,1976,26808,1963.166006025014,26740.018211057497,1421,-0.022350193298969073,-0.022572011018954896,1404.7998142653018
55,216.07288312499998,1979,27286,1967.9874289338,27179.848807446986,1403,-0.022760501047141106,-0.022409737486996956,1404.2913995786728
56,216.61253119999998,1982,27742,1974.1373757049612,27631.762893836254,1420,-0.021816770186335405,-0.02223152604187848,1405.0609979840722
57,217.152073925,1987,28022,1980.461550657961,28098.765476001183,1434,-0.021240637603226427,-0.022040985433998805,1406.3428163718047
58,217.69151129999997,1994,28208,1986.757978663125,28587.879634872268,1424,-0.0217441062027924,-0.02183773138650868,1407.6001721443022
59,218.230843325,1993,28635,1993.5148247978052,29098.032707422033,1411,-0.02184520681630508,-0.021626492597814385,1409.0707603795965
60,218.77006999999998,1998,29241,2000.7412625427144,29622.194138032,1399,-0.02198729948977719,-0.021418665454609572,1410.726652925294
61,219.30919132499997,2008,29891,2008.136605585592,30150.669075176662,1395,-0.021984721873543018,-0.021236726731814464,1412.1292214998937
62,219.84820729999998,1997,30363,2015.8569843031169,30685.33704047598,1395,-0.021222590425156878,-0.021083339858496867,1413.069514598265
63,220.38711792499998,1993,30803,2023.9600217445081,31239.09182540881,1411,-0.020201318986463032,-0.02092826104638284,1414.1701284287028
64,220.9259232,2014,31485,2032.202903802992,31821.550748600715,1419,-0.020189338671914765,-0.020772135575988636,1415.0503295657616
65,221.464623125,2024,32117,2040.3543228611807,32420.440734783853,1408,-0.020469876715515235,-0.020630731899937315,1415.213458968466
66,222.0032177,2024,32540,2048.5635688237167,33023.276744659495,1407,-0.020218901559837462,-0.02050326866162861,1415.1130489931547
67,222.54170692499997,2031,32965,2056.4756393122893,33628.50288794698,1411,-0.020042671494148834,-0.02036396749884934,1415.0439194545472
68,223.0800908,2046,33454,2064.394051960367,34238.24603048702,1414,-0.020122261844116147,-0.02019580486041003,1415.638881967854
69,223.61836932499997,2051,33843,2072.367528143293,34849.577317718875,1408,-0.020225213890286864,-0.020021201477889286,1416.5660377358217
70,224.1565425,2060,34606,2080.6199460916046,35456.03730548756,1404,-0.020156086769495485,-0.019892470922830176,1416.778409476971
71,224.69461032499999,2068,35348,2089.0751545900976,36055.58264060272,1402,-0.02001201923076923,-0.019793024058495468,1416.6701171034179
72,225.23257279999999,2078,36077,2097.746766631141,36640.84728985864,1405,-0.019794699844113063,-0.019707560667650833,1416.7065392194343
73,225.77042992499997,2102,37115,2106.478130874951,37202.22675485218,1417,-0.01956416188272927,-0.019629156516044206,1417.0367392239646
74,226.30818169999998,2122,37841,2114.5447915014656,37737.84192167361,1416,-0.019765390968392173,-0.019538324895071006,1417.378966680985
75,226.84582812499997,2129,38330,2122.167818070584,38249.632018844546,1406,-0.019971823982762905,-0.019449836592270467,1417.5070556524224
76,227.3833692,2144,38867,2129.586355296795,38729.152211827386,1422,-0.019660703101598453,-0.019389779089868296,1417.1961765838137
77,227.92080492499997,2150,39217,2136.642891118671,39170.92570613076,1424,-0.01958615480076618,-0.019332255830946103,1417.0380756075742
78,228.45813529999998,2177,39417,2143.780425377657,39573.82101519777,1442,-0.019736842105263157,-0.019290983750280963,1417.0977145574939
79,228.99536032499998,2200,39680,2150.7750345420773,39926.64198509516,1459,-0.019770544290288152,-0.019251045773422387,1417.7797911617206
80,229.53248,2176,40166,2156.8051144985884,40220.17305035143,1452,-0.01905764674914451,-0.019227508361136497,1418.091417699128
81,230.069494325,2168,40930,2162.2120546331325,40456.821196402314,1436,-0.018884474485320674,-0.019247530602018684,1417.6223244014318
82,230.60640329999998,2177,41387,2166.876191986187,40628.1742734822,1417,-0.01938281050752359,-0.01925763866450511,1417.8002446261255
83,231.143206925,2184,41605,2170.6548279688823,40718.70214500817,1408,-0.019684939499251666,-0.019266740390566174,1418.6598110942218
84,231.67990519999998,2185,41677,2173.9103037440973,40723.66436385797,1408,-0.019674870859920996,-0.019318934903068935,1419.5836825295885
85,232.216498125,2187,41717,2176.4511087453434,40654.68959659257,1411,-0.019630660258031875,-0.019423246304026497,1419.9404969534714
86,232.75298569999998,2190,41871,2178.1048721374927,40516.15841808343,1410,-0.019656762682392078,-0.01957190868371098,1419.6453826813474
87,233.289367925,2180,41996,2179.03205055603,40304.30342703041,1412,-0.019288728149487643,-0.019754614740106827,1419.2580352895602
88,233.8256448,2180,41851,2178.9328863620503,40011.959727286376,1409,-0.019434851654861234,-0.01995255718015357,1419.2648531110285
89,234.36181632499998,2192,41355,2177.4782894289374,39634.63944823136,1417,-0.019789086637898017,-0.02014627079051709,1420.0286756211647
90,234.89788249999998,2187,40754,2175.505787220507,39190.82090194493,1425,-0.019757824046464593,-0.020385773707398677,1420.7126775238125
91,235.433843325,2171,40226,2172.907970735422,38687.64778364101,1419,-0.019760872421495206,-0.02067843279410866,1420.7905954834494
92,235.9696988,2174,39675,2169.17873564516,38113.95852680621,1421,-0.020079464547612065,-0.021016169390286808,1420.375863552941
93,236.505448925,2179,38928,2164.168271081976,37470.74817096578,1423,-0.020571988353424584,-0.02138330831278578,1419.6478289428708
94,237.04109369999998,2178,38170,2158.5800584384283,36766.33692722301,1413,-0.021254723271838187,-0.02178962665086914,1418.8421708305693
95,237.576633125,2167,37382,2152.815148700949,36001.783347300494,1416,-0.021326139429220504,-0.022246841047224266,1418.0264332147683
96,238.11206719999998,2166,36499,2146.619062719386,35190.578019886525,1420,-0.021728366294818398,-0.022723385938058165,1417.4281410677208
97,238.64739592499998,2155,35518,2139.89209268609,34343.65888242023,1415,-0.022180259568983604,-0.023214292602541698,1416.7884663299012
98,239.1826193,2134,34437,2132.7387483294797,33475.12213187097,1404,-0.022598520261276043,-0.023708741577353476,1416.1420870234615
99,239.71773732499997,2126,33316,2126.0256177942465,32610.40406351157,1402,-0.023212568130811156,-0.024201099942050667,1415.9448232122768
100,240.25275,2125,32024,2120.19554236785,31749.77689188823,1415,-0.023746613599117027,-0.02472464278954007,1415.5126276925596
101,240.787657325,2121,30815,2114.7896894606497,30892.482660988335,1429,-0.024116540043214608,-0.02525574686018228,1414.9751749756238
102,241.3224593,2110,29696,2109.287390427829,30056.913338919898,1421,-0.024976437323279924,-0.02574083225602483,1415.1158803143628
103,241.85715592499997,2090,28529,2103.792430179579,29243.70266597149,1419,-0.025379174704035706,-0.026194511781160515,1415.5172937099096
104,242.3917472,2079,27508,2099.130897642036,28453.103377199397,1416,-0.02607259428211884,-0.026644060469027432,1415.9944732609754
105,242.92623312499998,2084,26700,2095.1479761715605,27702.87102765582,1423,-0.026852453688657782,-0.027066931742621873,1416.7454755486829
106,243.46061369999998,2078,25732,2090.945910439608,27019.879068608057,1433,-0.02726811532933119,-0.02742536591922583,1417.6951912840334
107,243.994888925,2075,24960,2087.024983578297,26412.0043262583,1430,-0.028184400262180467,-0.02773420761393922,1418.6364810074704
108,244.52905879999997,2079,24512,2084.1313733039983,25872.418197467174,1425,-0.0291534792493202,-0.028021842253115527,1419.291286325824
109,245.063123325,2073,24121,2082.191442614742,25410.714059208105,1416,-0.029798621190130624,-0.02827841571148596,1419.7177965525561
110,245.59708249999997,2064,23577,2080.8511404561427,25042.04695463043,1423,-0.029795937340212894,-0.028486388817058467,1419.9499875421595
111,246.130936325,2066,23104,2080.453124646045,24783.813381956083,1433,-0.03008841144595494,-0.02863876832525544,1420.2999388434346
112,246.66468479999997,2069,22907,2081.3543681623196,24647.50021517994,1431,-0.030617141760245704,-0.02874281282731337,1420.5724251964664
113,247.19832792499997,2060,22920,2083.3831796869295,24639.428050464998,1414,-0.03096836049856184,-0.028792435779079778,1420.6405354594397
114,247.7318657,2067,23231,2086.3229744727682,24754.789349701678,1399,-0.031563031563031564,-0.028784826295603735,1420.6187682619948
115,248.265298125,2073,23370,2090.5727423044286,24985.95275091121,1406,-0.03131896511245715,-0.02872033128645722,1421.1294027044507
116,248.79862519999998,2075,23427,2095.8563274365947,25325.51414528027,1413,-0.03100412139378044,-0.028593006105912443,1422.219280164869
117,249.33184692499998,2086,23872,2101.3471199800274,25764.312215451726,1427,-0.030248783622509868,-0.028399320620232336,1423.3837459511833
118,249.8649633,2113,24544,2108.338308908428,26315.60162178029,1443,-0.029869377201194775,-0.028154967616764393,1425.070783030166
119,250.397974325,2130,25291,2116.821943871848,26982.02106502927,1453,-0.029230171408833817,-0.027864592531191765,1427.1624498855874
120,250.93087999999997,2126,26214,2127.0102154068763,27763.64694557015,1452,-0.02798073729657921,-0.02755066019250598,1428.8933837685745
121,251.46368032499998,2136,27435,2138.896328342617,28653.370721873107,1443,-0.027392387050871575,-0.02719691081194156,1431.0230809304583
122,251.99637529999998,2152,28711,2151.779360800883,29629.54864209778,1443,-0.02669528220189013,-0.026796219641427733,1433.8098484676616
123,252.52896492499997,2171,29936,2165.602799610369,30681.299463180912,1447,-0.026075994957680534,-0.026359796431600985,1436.929556728324
124,253.06144919999997,2180,31058,2180.2973113773396,31802.30138847931,1446,-0.025417272664311933,-0.025891722076081758,1440.340664567686
125,253.593828125,2174,32310,2196.184398287575,32992.52030623507,1457,-0.023792142288293072,-0.025395163608281854,1444.5634782214495
126,254.1261017,2172,33778,2213.006681918008,34240.78429862445,1454,-0.022717205593874582,-0.02485861996460625,1450.3699064531195
127,254.65826992499998,2200,35077,2229.8819678814493,35528.188112980366,1450,-0.022812300392371566,-0.024283191875434335,1457.1248952410876
128,255.19033279999996,2222,36555,2247.3049446193145,36841.73670977754,1447,-0.02257303468965718,-0.02370472936236853,1464.1663910847074
129,255.722290325,2244,38260,2264.948583206824,38173.305352328876,1470,-0.021490448689471347,-0.023110607342311594,1471.9313234727572
130,256.2541425,2277,39798,2282.7144669187996,39518.357539241355,1493,-0.02089496548599451,-0.022505023393105502,1480.655235679149
131,256.78588932499997,2298,40988,2300.565743278399,40862.05293438052,1498,-0.020677177565262342,-0.021882890204206543,1491.0169652766479
132,257.3175308,2318,42577,2317.9710072707885,42182.061564247524,1499,-0.020343277279614495,-0.021242358045279117,1502.8751953611345
133,257.849066925,2332,44545,2335.240549049763,43467.48968266469,1503,-0.019638499988155308,-0.02061388565781613,1515.7006274207508
134,258.3804977,2350,46361,2352.634465106752,44720.4405309285,1513,-0.01901797277953239,-0.02000252492700048,1529.7415116989898
135,258.91182312499996,2378,47831,2369.7635507032546,45942.11218827066,1532,-0.018612632829516203,-0.019402060349310597,1545.00937733581
136,259.4430432,2399,48891,2386.3968606309995,47114.78377766111,1546,-0.01834724253635034,-0.018792464282847265,1562.2431765158592
137,259.974157925,2411,49836,2402.7820788692375,48234.36739223899,1565,-0.017838692672641012,-0.01818078799752073,1581.8784570431642
138,260.5051673,2415,50679,2419.2066864481176,49305.10278828418,1595,-0.01698988894414056,-0.01759747818614979,1603.0142698588563
139,261.03607132499997,2436,51510,2434.365738748283,50307.92489071004,1620,-0.016627949627093776,-0.01703770707244777,1624.5476681238224
140,261.56687,2459,52267,2448.5222768352155,51240.30958798515,1638,-0.016483295856087377,-0.016497678365464823,1647.1299010169794
141,262.097563325,2477,53138,2461.7666991324363,52098.098484675895,1658,-0.016166281755196306,-0.015960196010276637,1671.407914109008
142,262.62815129999996,2513,54395,2473.570114838341,52866.27996104001,1684,-0.015978566747619598,-0.015424571426709565,1697.0322091100265
143,263.158633925,2525,55164,2484.132030170511,53554.042379214814,1705,-0.015577803529702313,-0.014872762087761941,1724.5119255248942
144,263.6890112,2540,55511,2494.604566354796,54161.62486126422,1733,-0.015234751090219177,-0.0143170326469262,1754.534870551961
145,264.219283125,2541,55614,2504.0899680626485,54676.505787219496,1779,-0.014357582951783392,-0.01374341699002516,1786.4924913361226
146,264.7494497,2527,55657,2511.6623706085725,55108.95757548196,1817,-0.013363448146056842,-0.013139708078059326,1819.4739178689997
147,265.27951092499995,2543,56080,2518.636141248904,55479.55267389869,1852,-0.01290696154061677,-0.012527130752846345,1854.1273415026035
148,265.8094668,2549,56526,2524.813585811635,55785.36607850581,1893,-0.012153324564166219,-0.0118843528248759,1891.0186640693648
149,266.33931732499997,2541,56793,2529.9139731363753,56008.24906566292,1932,-0.011225392612253925,-0.011223687544220647,1929.0165575663862
150,266.8690625,2527,56646,2533.673559989985,56136.53899295459,1964,-0.010403000794545354,-0.010531439825963855,1968.219257514289
151,267.398702325,2523,56237,2535.63303812086,56186.109130443554,1987,-0.009978776482853632,-0.009768430755731186,2009.4563183763685
152,267.9282368,2544,56064,2536.037667897299,56179.03171079645,2038,-0.00945440956651719,-0.008955321892514261,2052.3292033794255
153,268.457665925,2538,55974,2535.73686833219,56107.62857595761,2096,-0.008271577213863313,-0.008134653801039494,2096.1583048313264
154,268.9869897,2526,55645,2534.244830007426,55972.16784072012,2150,-0.0070784465068996025,-0.007293330476761534,2140.4635439080876
155,269.516208125,2518,55109,2531.657500736095,55786.04591270363,2199,-0.006065676636686885,-0.006386628148142893,2186.7985911345254
