,x_(nm),baseline_dark,baseline_light,baseline_mirror,baseline_calibration,baseline_dark_smoothed,baseline_light_smoothed,raw_signal,calibrated_signal,calibrated_signal_smoothed,raw_signal_smoothed
0,186.23,1030,1031,0.3621226043733797,0.3621226043733797,1005.6870239145478,3697.0138181381453,1040,3.6212260437337966,,1154.8167879311047
1,186.775442325,1025,1028,1.18800459154587,0.39600153051528997,1011.7952398569481,2779.731615077916,1029,1.5840061220611599,,1114.4772260008658
2,187.3207793,1027,1017,1.908567993433533,-0.19085679934335328,1017.5761674965091,1977.4766293293821,1025,0.38171359868670657,,1079.6595200312017
3,187.86601092499998,1020,1017,1.7279185264672412,-0.5759728421557471,1023.0375689995391,1286.306173032042,1030,-5.759728421557471,,1050.1737686011345
4,188.41113719999998,1012,1029,1.043047789334166,0.06135575231377448,1028.1872065323462,702.2775583253933,1032,1.2271150462754896,,1025.830070289686
5,188.956158125,1015,1027,0.840365554154959,0.07003046284624657,1033.0328422612388,221.44809734893624,1035,1.4006092569249315,,1006.4385236758785
6,189.50107369999998,1024,1014,0.8202728553565946,-0.08202728553565945,1037.5822383525249,-160.1248977578316,1044,-1.640545710713189,,991.8092273387338
7,190.045883925,1036,1029,0.837733819880384,-0.119676259982912,1041.8431569725128,-446.384114855412,1062,-3.111582759555712,,981.7522798572738
8,190.59058879999998,1041,1051,0.8116271105193998,0.08116271105193998,1045.823360287511,-641.2722418043049,1071,2.4348813315581994,,976.0777798105208
9,191.135188325,1046,1063,0.8262856362484797,0.04860503742638116,1049.530610463827,-748.7319664650131,1072,1.2637309730859103,,974.5958257774965
10,191.67968249999998,1054,1068,0.8012221689422371,0.057230154924445505,1052.97266966777,-772.7059766980374,1076,1.2590634083378012,,977.1165163372232
11,192.22407132499998,1051,1064,0.7775424502505143,0.059810957711578024,1056.1573000656476,-717.1369603638796,1070,1.1364081965199824,,983.4499500687225
12,192.7683548,1049,1049,0.7753865851703869,inf,1059.0922638237682,-585.9676053230387,1066,inf,,993.4062255510166
13,193.312532925,1051,1047,0.7956261498651602,-0.19890653746629006,1061.78532310844,-383.1405994360216,1061,-1.9890653746629006,,1006.7954413631277
14,193.8566057,1053,1056,0.7908861747409445,0.26362872491364814,1064.2442400859713,-112.59863056332597,1074,5.536203223186611,,1023.4276960840775
15,194.400573125,1052,1064,0.7942231778648126,0.06618526482206771,1066.47677692267,221.71561343454687,1091,2.5812253280606408,,1043.1130882928883
16,194.9444352,1061,1077,0.7947581770897779,0.04967238606811112,1068.490695784845,615.8594446970974,1102,2.0365678287925557,,1065.6617165685816
17,195.488191925,1083,1091,0.7914877943554887,0.09893597429443608,1070.2937588388038,1065.890175363822,1117,3.3638231260108267,,1090.88367949018
18,196.0318433,1105,1100,0.7911116722494277,-0.15822233444988554,1071.893728250855,1567.8651175742161,1119,-2.2151126822983978,,1118.589075636705
19,196.575389325,1095,1094,0.7900325230816138,-0.7900325230816138,1073.2983661873068,2117.8415834677817,1097,-1.5800650461632275,,1148.5880035871787
20,197.11883,1083,1086,0.798472358442206,0.26615745281406866,1074.5154348144674,2711.876885184017,1082,-0.26615745281406866,,1180.6905619206234
21,197.662165325,1089,1086,0.7981102791346143,-0.2660367597115381,1075.552696298645,3346.0283348624234,1089,-0.0,,1214.7068492160608
22,198.2053953,1083,1086,0.8040599544843242,0.26801998482810807,1076.4179128061478,4016.3532446424924,1094,2.9482198331091887,,1250.446964052513
23,198.74851992499998,1066,1078,0.8074165803696804,0.0672847150308067,1077.1188465032842,4718.908926663733,1086,1.345694300616134,,1287.721005009002
24,199.2915392,1068,1086,0.8060625325032217,0.044781251805734536,1077.6632595563622,5449.7526930656295,1090,0.9851875397261598,,1326.33907066455
25,199.83445312499998,1098,1117,0.8122546130835153,0.04275024279386923,1078.0589141316696,6204.9418559875585,1108,0.4275024279386923,inf,1366.1112595981526
26,200.3772617,1109,2059,0.8144257223941842,0.0008572902340991412,1078.4506330834013,6874.964234750373,1165,0.04800825310955191,inf,1402.1450315975178
27,200.919964925,1089,5964,0.8150182986479615,0.0001671832407482998,1078.2127794513826,7559.602663706848,1369,0.046811307409523946,inf,1438.3312192801372
28,201.4625628,1069,10436,0.8232603193402961,8.788943304583069e-05,1077.7992480010664,8260.155020498607,1583,0.04517516858555697,inf,1474.8386599922705
29,202.005055325,1057,12330,0.8194894939197722,7.269488990683689e-05,1077.6234342793514,8975.529321162256,1679,0.04521622152205255,inf,1512.666221205434
30,202.5474425,1061,13171,0.8269202298982968,6.828408174222104e-05,1077.5512695644088,9704.31305352311,1731,0.0457503347672881,inf,1550.9699879951684
31,203.089724325,1063,13796,0.8298864771900701,6.517603684835232e-05,1076.9437812860788,10446.959659335233,1770,0.04607945805178509,inf,1589.2611837187399
32,203.63190079999998,1073,14404,0.8293789756785952,6.221431068026369e-05,1076.0395931957482,11203.69886067613,1801,0.045292018175231964,-inf,1628.2021110330613
33,204.173971925,1081,14858,0.8303112569560028,6.0267928936343386e-05,1075.7388162812088,11971.958187048174,1828,0.04502014291544851,-inf,1668.6869238261022
34,204.71593769999998,1082,15248,0.832804584655424,5.878897251556007e-05,1075.6112256223037,12742.325896396049,1846,0.04491477500188789,-inf,1709.9149244603175
35,205.257798125,1090,15573,0.8371769300637781,5.780411034065995e-05,1075.2695191283856,13508.983872794142,1867,0.044913793734692786,-inf,1751.023058279882
36,205.7995532,1085,15966,0.8381556767340916,5.632388124011099e-05,1074.8500985299572,14266.363020679697,1881,0.044833809467128345,-inf,1791.2738906883164
37,206.34120292499998,1076,16536,0.840625124319978,5.437419950323273e-05,1074.5645654488003,15016.482842193192,1906,0.04513058558768317,-inf,1830.5127635959693
38,206.88274729999998,1068,17114,0.8415937915656597,5.244882161072291e-05,1074.3412308319348,15758.37953294495,1932,0.045315781871664594,-0.0034360210783616132,1869.0515979976535
39,207.424186325,1064,17444,0.8431564976534377,5.147475565649803e-05,1073.7124510181225,16482.210219936715,1942,0.04519483546640527,-0.12838653890201102,1906.309542684962
40,207.96552,1069,17750,0.844165982526256,5.0606437415398115e-05,1072.8832136628032,17186.766427325318,1949,0.04453366492555034,-0.024467541984883996,1943.1265487326632
41,208.506748325,1070,18090,0.8476484869242688,4.980308383808864e-05,1072.1177150105118,17874.645677138436,1967,0.04467336620276551,0.013311922913875826,1979.3972909918307
42,209.0478713,1077,18456,0.8491768105118729,4.886223663685326e-05,1071.7227796778884,18543.051009082523,2001,0.045148706652452415,0.046588317208355066,2015.1087227343382
43,209.588888925,1064,18973,0.8502736512177026,4.747744995352631e-05,1071.9713923304964,19185.486692789957,2040,0.046337991154641676,0.13335113929932502,2050.1846927449833
44,210.12980119999997,1048,19372,0.8513731200582484,4.646218729852916e-05,1072.8831683616638,19797.769938163565,2060,0.04701973354611151,0.05816741744434661,2083.9725022083903
45,210.670608125,1049,19803,0.8534308197221572,4.5506602310022246e-05,1073.9205191510362,20368.453101995125,2084,0.04709933339087302,-0.010288626541926056,2115.3204829101046
46,211.2113097,1048,20215,0.8557212941711507,4.464555194715661e-05,1074.9650954721305,20895.36573874793,2100,0.04696712064840875,-0.04672245228882254,2143.9662506511627
47,211.751905925,1055,20437,0.8575135521308375,4.4242779492871604e-05,1076.2571066162109,21376.328455910254,2118,0.04703007460092252,-0.07757955142405552,2170.0109175745356
48,212.29239679999998,1079,20770,0.8580327959771828,4.357487156453115e-05,1077.403044236542,21801.177240707188,2153,0.04679941206030646,-0.014390656224804123,2193.1570137488534
49,212.83278232499998,1082,21205,0.8587529108532552,4.26751931050666e-05,1078.137194500421,22174.001291082044,2169,0.046387934905207394,0.013031290389276196,2213.53500645537
50,213.37306249999997,1077,21652,0.8598387128136875,4.17904599180407e-05,1078.5920858909394,22496.981018822196,2196,0.04676352464828754,0.035979692179248644,2231.149720265422
51,213.91323732499998,1086,22188,0.8611437003932625,4.0808629532426425e-05,1079.429160343362,22762.18616503161,2220,0.04627698588977157,0.04619611873569578,2245.836553489277
52,214.45330679999998,1101,22841,0.8624756676121401,3.967229381840571e-05,1080.387573897463,22999.17531540874,2260,0.04598018853553222,0.0463358588828737,2259.7655213028174
53,214.993270925,1109,23391,0.8630074298534857,3.8731147556479926e-05,1080.0238510498334,23307.910371695398,2298,0.04605133444465463,0.04644704494264642,2276.5353009127743
54,215.5331297,1092,23922,0.8629495266956824,3.779892801995981e-05,1078.7935853586512,23723.717230287883,2306,0.04588789861623121,0.046507834809510325,2297.904844956807
55,216.07288312499998,1073,24441,0.8648478670709356,3.7009922418304334e-05,1078.3601440576024,24179.145326054488,2334,0.046669512169481765,0.0465712527783486,2322.5546898004036
56,216.61253119999998,1085,24842,0.8650803831098881,3.6413704723234756e-05,1079.191918276724,24641.730390268844,2377,0.0470465065024193,0.04665105339859632,2348.990690615824
57,217.152073925,1098,25105,0.8652291434094919,3.604070243718465e-05,1080.5372488617882,25113.358128156444,2401,0.046961035275651604,0.046756442703028304,2377.234977009626
58,217.69151129999997,1085,25348,0.8680312398394996,3.577592382803032e-05,1082.0928673355925,25596.022401412905,2398,0.04697378798620381,0.04683518824061839,2405.961494031529
59,218.230843325,1079,25802,0.868212549145114,3.5117605029531774e-05,1083.7252259394118,26089.824095675507,2406,0.046601061874188665,0.04689811117287671,2435.094498176582
60,218.77006999999998,1087,26355,0.868144571802742,3.4357470785291356e-05,1085.3385354141449,26593.927767332836,2429,0.046107725793861,0.04696000457807444,2465.0380982581237
61,219.30919132499997,1096,27016,0.8681762475955156,3.349445399674057e-05,1086.940927314301,27102.188701895335,2477,0.04625584096949873,0.047014181789281725,2495.033205735076
62,219.84820729999998,1087,27514,0.868951283960652,3.288119286943853e-05,1088.2992366757815,27614.952252598625,2518,0.047052986996166536,0.04705523894085552,2524.7742644227014
63,220.38711792499998,1079,27917,0.8691522224557424,3.238513385705874e-05,1089.532288387032,28140.183877323976,2545,0.04747660623444811,0.04710036698549796,2555.257129266752
64,220.9259232,1091,28561,0.8692686507714266,3.16442901627749e-05,1090.3073682302902,28683.438492377536,2585,0.047276569503185706,0.047156411465778154,2586.916238193341
65,221.464623125,1098,29169,0.8701622824311823,3.099862072712701e-05,1090.5836825295949,29235.329837594854,2610,0.04686991453941604,0.047217879898077075,2619.1394142562185
66,222.0032177,1093,29573,0.86932404321908,3.052401837145646e-05,1090.4789462954784,29790.562911956666,2639,0.047190132402271684,0.04725398739137262,2650.853065754553
67,222.54170692499997,1087,29935,0.8705973257298546,3.0178775850313873e-05,1090.286212598226,30344.494258080005,2658,0.04741085686084309,0.0472789143832233,2682.096061065885
68,223.0800908,1087,30378,0.8704844215444587,2.9718494470808736e-05,1090.1839679267725,30898.27860200625,2678,0.0472821247030567,0.04730850408173666,2713.614804412279
69,223.61836932499997,1091,30822,0.8703398065724872,2.9273815430778892e-05,1089.4962513307,31453.15388796968,2701,0.04713084284355402,0.047364818694585226,2745.2161770367998
70,224.1565425,1082,31523,0.8697053263836744,2.857019566977676e-05,1088.2888627148764,32005.30378943969,2730,0.047083682463792104,0.04744128383329195,2776.692699721345
71,224.69461032499999,1071,32195,0.8700422735223692,2.795406353689658e-05,1087.0229223764768,32556.374889577848,2765,0.04735418363150281,0.04751527313392996,2807.943033817247
72,225.23257279999999,1068,32838,0.8700397124616915,2.7385574833543957e-05,1085.7171623366116,33102.04444041704,2813,0.047787828084534203,0.04758178203795269,2838.601531178455
73,225.77042992499997,1066,33732,0.8700678242154535,2.6635272889715712e-05,1084.4949149470901,33637.234886406746,2867,0.047970126474378,0.04765472499126899,2869.0624249699326
74,226.30818169999998,1059,34379,0.8699872642519537,2.611006195233955e-05,1083.7575709528887,34163.02652381642,2898,0.04801640393035243,0.047715752752879655,2899.2150898094533
75,226.84582812499997,1065,34819,0.8700242014773532,2.577543999162627e-05,1082.786246574081,34683.123173797154,2933,0.04814852190435787,0.04776089569436917,2928.539264762452
76,227.3833692,1082,35395,0.8696880407569096,2.5345730211782986e-05,1081.6009875648165,35193.12113524588,2984,0.04820757886281124,0.04780939246941426,2957.139436906781
77,227.92080492499997,1096,35810,0.87010037851645,2.5064826252130262e-05,1080.441822011803,35688.78158055607,3000,0.04772342918405602,0.04784347395941049,2984.7530634894897
78,228.45813529999998,1132,36085,0.8693067287349536,2.487073294810041e-05,1079.7308659312573,36172.90466375161,3060,0.04795077312393759,0.04788011908276407,3012.5370903077637
79,228.99536032499998,1154,36374,0.8691277262341458,2.467710750238915e-05,1079.7173208905997,36639.60105551584,3109,0.04824374516717079,0.047913476820271056,3040.0035561393784
80,229.53248,1123,36870,0.86926662631248,2.431719098980278e-05,1079.3908129289246,37082.89096015694,3108,0.04826962411475852,0.04794152103687421,3065.926793358795
81,230.069494325,1084,37613,0.8686441253792921,2.3779575826857896e-05,1077.9003148428976,37507.691250084215,3118,0.04836765723182896,0.04800568873323757,3091.0779859112863
82,230.60640329999998,1063,38158,0.868302707705708,2.340754030747292e-05,1076.7604702258054,37903.86294140225,3113,0.047985457630319486,0.04808405434497463,3115.4567260866015
83,231.143206925,1059,38654,0.8687016218294412,2.3106839256003223e-05,1076.452150671569,38254.70642596588,3144,0.048177759848766724,0.048159145799934786,3138.0263879135964
84,231.67990519999998,1059,38992,0.8683284847277679,2.289111023983782e-05,1075.4996715667191,38560.35069876933,3175,0.048437589267496826,0.04824321256675237,3157.8549004506867
85,232.216498125,1056,39250,0.8683608504247778,2.2735530460930456e-05,1074.172552039663,38836.32591904612,3181,0.048313002229477216,0.04832124653376823,3175.6317017372376
86,232.75298569999998,1061,39596,0.868249886800152,2.253146196445185e-05,1073.3123287050464,39085.92233119588,3213,0.04848770614750038,0.04836699640610301,3191.397426895225
87,233.289367925,1062,39953,0.867778574191436,2.231309491119889e-05,1073.0757435049286,39301.865614169445,3248,0.04877642547588077,0.048422727636437415,3206.3891594372985
88,233.8256448,1053,40185,0.8676471171202086,2.2172317211494648e-05,1072.8306190400483,39473.72128473955,3258,0.0488899594513457,0.04851927085875885,3220.3382409566984
89,234.36181632499998,1054,40191,0.8677489292852631,2.2172085987307742e-05,1072.5476681238326,39595.98650025972,3249,0.048667728742140495,0.048627374627557854,3231.7559627624023
90,234.89788249999998,1060,40178,0.8672589311593729,2.2170329034188174e-05,1072.7335386984778,39688.7962807757,3236,0.04824263597839347,0.04873241751585465,3241.966681011965
91,235.433843325,1073,40210,0.8668004592010585,2.2147851373407734e-05,1073.0825160252575,39758.81906724878,3248,0.04817157673716182,0.04883564143273068,3251.1317583636605
92,235.9696988,1074,40340,0.8665578153052318,2.206890987890877e-05,1073.2880019932297,39791.67269926763,3265,0.048352981544689116,0.0489564607900495,3258.8001993249504
93,236.505448925,1076,40371,0.8666098942893835,2.2053948194156598e-05,1072.9241658927515,39781.72069582473,3270,0.04838636233797958,0.04909466334483773,3264.1026976827843
94,237.04109369999998,1081,40439,0.8664654382940954,2.201497632740727e-05,1072.182269134048,39736.53101995438,3286,0.04854302280193303,0.04922180041633012,3266.6563229064586
95,237.576633125,1078,40451,0.8658853313998153,2.1991855621868167e-05,1072.1369906452942,39653.69587080039,3288,0.04860200092432865,0.04933554357795834,3267.2256902760473
96,238.11206719999998,1074,40350,0.8659634438688039,2.2048157752031872e-05,1071.9028517067,39536.42560420318,3293,0.04892486205175872,0.04945346551252224,3265.858071530436
97,238.64739592499998,1066,40285,0.8653764850454776,2.2065235856229827e-05,1071.3602120093115,39396.81356316036,3298,0.04924960643110497,0.049580182163955676,3263.1087906860234
98,239.1826193,1061,40084,0.865240351462597,2.2172573904174384e-05,1070.9128406079208,39246.697365738,3285,0.04931180436288383,0.04971800458473679,3260.316247253556
99,239.71773732499997,1062,39815,0.8654717432609225,2.2333025656360087e-05,1070.179596366828,39104.60520057005,3288,0.04971331511105755,0.049866663647737536,3258.308274253035
100,240.25275,1070,39383,0.8654328986505,2.258849212148618e-05,1068.7442750684972,38964.56397653326,3286,0.05005609854121337,0.05002540924488144,3256.1985775441626
101,240.787657325,1070,38977,0.8649750843904328,2.2818347122970237e-05,1067.4375184035675,38818.73591700757,3287,0.05058827557162501,0.05019817343924061,3254.492468685526
102,241.3224593,1077,38700,0.8650023747478218,2.299131846869792e-05,1067.0473623411426,38683.47230967785,3291,0.050902779089697196,0.05037832641397269,3254.6107273097296
103,241.85715592499997,1079,38376,0.864426750181391,2.3176843986953133e-05,1067.3328274705905,38554.9834650834,3268,0.050734111487440406,0.05054000554416638,3254.9993431334174
104,242.3917472,1067,38087,0.8640504083213235,2.334009746951171e-05,1068.6194251285215,38424.57281025544,3256,0.051091473360761135,0.05070678108790859,3256.5380416316843
105,242.92623312499998,1062,37931,0.8638615542876957,2.343056644573207e-05,1070.2119413803052,38302.050261613345,3251,0.051289509949707504,0.050893526287098464,3259.9210401140967
106,243.46061369999998,1082,37538,0.8647030136247108,2.371908639523565e-05,1071.5375206686244,38205.46811932246,3234,0.051043473922547114,0.051082676710102345,3264.7477179550438
107,243.994888925,1083,37298,0.863747888775786,2.385055608934933e-05,1072.0796167523408,38136.48284219275,3230,0.05120714392383301,0.05127314696728275,3270.5418469273873
108,244.52905879999997,1070,37446,0.8628771528607923,2.3721056544446675e-05,1072.1484744841127,38087.694239959405,3243,0.051545855871082624,0.051442734339509764,3276.2195972728086
109,245.063123325,1081,37549,0.8633129275796555,2.3673163529111976e-05,1072.42059842803,38066.20528211211,3259,0.05156015016640588,0.05160823317543115,3283.4591723481212
110,245.59708249999997,1090,37297,0.8623491049005171,2.3817192943367777e-05,1072.3412081813651,38079.46454053247,3258,0.05163567430122134,0.051783069441434876,3292.970395705389
111,246.130936325,1085,36988,0.862505803534046,2.402322378447612e-05,1072.0492423384242,38141.00269541706,3268,0.052442697521511365,0.05194044442728142,3304.3370631270745
112,246.66468479999997,1076,37046,0.8631762817630669,2.399711653497545e-05,1071.8747423497493,38254.8187727914,3262,0.052457696745456334,0.05208575606916745,3318.2721918955626
113,247.19832792499997,1069,37368,0.8629529675416884,2.377346393954898e-05,1071.5492989648483,38419.90889940809,3260,0.052087659491551815,0.05223787588978649,3335.5743504948514
114,247.7318657,1061,37875,0.8621360146885437,2.3418699806827394e-05,1070.647307979775,38632.90409748731,3299,0.052411050167679704,0.05239288365715067,3355.4422976737224
115,248.265298125,1055,38032,0.8624878814902607,2.3324982597026818e-05,1069.9176198781195,38887.46252463175,3312,0.052644485721489526,0.052525515192120564,3376.9098507326808
116,248.79862519999998,1056,37988,0.862427427307537,2.335176614609382e-05,1069.8340392760674,39176.59210854078,3306,0.05254147382871109,0.05262354238652592,3399.399035085667
117,249.33184692499998,1056,38283,0.8621956715984717,2.316049296474257e-05,1070.0422659629685,39490.66864481566,3320,0.052435356072177176,0.052701990388951785,3422.837368909763
118,249.8649633,1070,38816,0.8614594306460737,2.2822535650031095e-05,1070.2846497089197,39847.42961335401,3358,0.05221796156727115,0.05276860131791666,3448.3064622074585
