,x_(nm),baseline_dark,baseline_light,baseline_mirror,baseline_calibration,baseline_dark_smoothed,baseline_light_smoothed,raw_signal,calibrated_signal,calibrated_signal_smoothed,raw_signal_smoothed
0,186.23,1271,1286,0.3621226043733797,0.02414150695822531,1249.5231540769828,4115.752914615312,1293,0.5311131530809569,,1428.8451546398267
1,186.775442325,1265,1271,1.18800459154587,0.19800076525764498,1256.4388982169226,3139.6387053321773,1270,0.9900038262882249,,1379.5383065982396
2,187.3207793,1257,1264,1.908567993433533,0.2726525704905047,1262.9248593744867,2285.715364849393,1279,5.998356550791103,,1336.8222560754666
3,187.86601092499998,1259,1263,1.7279185264672412,0.4319796316168103,1268.993858581975,1549.8057117961048,1289,12.959388948504309,,1300.4603714990267
4,188.41113719999998,1271,1266,1.043047789334166,-0.20860955786683322,1274.658716871687,927.7325648014566,1288,-3.5463624837361647,,1270.2160212964397
5,188.956158125,1281,1269,0.840365554154959,-0.07003046284624657,1279.9322552759213,415.31874249459406,1287,-0.4201827770774794,,1245.8525738952249
6,189.50107369999998,1277,1269,0.8202728553565946,-0.10253410691957432,1284.8272948269782,8.387063504661455,1286,-0.9228069622761689,,1227.1333977229015
7,190.045883925,1282,1278,0.837733819880384,-0.209433454970096,1289.3566565571566,-297.2396535391963,1299,-3.560368734491632,,1213.821861206989
8,190.59058879999998,1283,1290,0.8116271105193998,0.11594673007419998,1293.5331614987558,-505.7385900078334,1313,3.4784019022259995,,1205.6813327750067
9,191.135188325,1292,1291,0.8262856362484797,-0.8262856362484797,1297.3696306840757,-621.2869272721055,1325,-27.26742599619983,,1202.475180854474
10,191.67968249999998,1311,1304,0.8012221689422371,-0.11446030984889101,1300.878885145415,-648.061846702868,1320,-1.0301427886400192,,1203.9667738729104
11,192.22407132499998,1310,1296,0.7775424502505143,-0.0555387464464653,1304.0737459150737,-590.2405296709749,1308,0.1110774928929306,,1209.919480257835
12,192.7683548,1297,1294,0.7753865851703869,-0.25846219505679563,1306.967034025351,-452.00015754728065,1297,-0.0,,1220.0966684367672
13,193.312532925,1294,1298,0.7956261498651602,0.19890653746629006,1309.571570508546,-237.5179117026446,1291,-0.5967196123988702,,1234.2617068372267
14,193.8566057,1300,1300,0.7908861747409445,inf,1311.9001763969584,49.02902649208363,1301,inf,,1252.1779638867324
15,194.400573125,1302,1300,0.7942231778648126,-0.3971115889324063,1313.9656727228876,403.4634756660448,1318,-6.3537854229185005,,1273.6088080128043
16,194.9444352,1312,1306,0.7947581770897779,-0.13245969618162964,1315.780880518633,821.6082544483852,1333,-2.7816536198142225,,1298.317607642961
17,195.488191925,1330,1322,0.7914877943554887,-0.09893597429443608,1317.3586208164936,1299.2861814682537,1336,-0.5936158457666165,,1326.0677312047226
18,196.0318433,1342,1332,0.7911116722494277,-0.07911116722494277,1318.7117146487694,1832.3200753547871,1331,0.8702228394743705,,1356.622547125608
19,196.575389325,1337,1333,0.7900325230816138,-0.19750813077040344,1319.8529830477594,2416.5327547371367,1335,0.3950162615408069,,1389.7454238331366
20,197.11883,1322,1328,0.798472358442206,0.13307872640703433,1320.7952470457628,3047.7470382444453,1332,1.3307872640703433,,1425.1997297548282
21,197.662165325,1327,1331,0.7981102791346143,0.19952756978365357,1321.5513276750796,3721.7857445058576,1325,-0.39905513956730715,,1462.7488333182016
22,198.2053953,1333,1335,0.8040599544843242,0.4020299772421621,1322.1340459680086,4434.471692150524,1320,-5.226389704148107,,1502.1561029507764
23,198.74851992499998,1322,1327,0.8074165803696804,0.1614833160739361,1322.5562229568495,5181.6276998075755,1314,-1.2918665285914888,,1543.1849070800722
24,199.2915392,1322,1324,0.8060625325032217,0.40303126625161084,1322.8306796739018,5959.076586106172,1321,-0.40303126625161084,,1585.598614133608
25,199.83445312499998,1347,1341,0.8122546130835153,-0.13537576884725255,1322.970237151439,6762.641169675288,1354,-0.9476303819307679,inf,1629.1605925388708
26,200.3772617,1341,2354,0.8144257223941842,0.0008039740596191354,1323.5307028471511,7477.524156832402,1413,0.05788613229257775,inf,1668.0486534236018
27,200.919964925,1320,6488,0.8150182986479615,0.00015770477915014733,1323.3336881922328,8208.580692654265,1627,0.048415367199095234,inf,1706.2470044621296
28,201.4625628,1310,11256,0.8232603193402961,8.277300616733321e-05,1322.6741036036804,8957.698928627884,1870,0.0463528834537066,inf,1745.003465537125
29,202.005055325,1305,13279,0.8194894939197722,6.843907582426694e-05,1322.4718793177396,9723.495390608887,1984,0.04647013248467725,inf,1784.9315046773086
30,202.5474425,1305,14176,0.8269202298982968,6.424677413552147e-05,1322.638768715008,10503.147047498042,2038,0.04709288544133724,inf,1825.275951890155
31,203.089724325,1310,14828,0.8298864771900701,6.139121742787914e-05,1322.663797594484,11295.06401050965,2082,0.04739401985432269,inf,1865.755056739641
32,203.63190079999998,1316,15469,0.8293789756785952,5.860093094598991e-05,1322.4533285011864,12100.74271217898,2121,0.04717374941152187,inf,1906.4241545674508
33,204.173971925,1318,15999,0.8303112569560028,5.6556859679586055e-05,1322.5734218215334,12919.187184307437,2134,0.046150397498542224,inf,1947.9021268884537
34,204.71593769999998,1327,16420,0.832804584655424,5.5178200798742724e-05,1322.436544429067,13740.077850007665,2149,0.04535648105656652,-inf,1989.909510974163
35,205.257798125,1331,16736,0.8371769300637781,5.434449399959611e-05,1322.1740243266863,14555.914856508363,2161,0.04510593001966477,-inf,2031.9138372329671
36,205.7995532,1323,17147,0.8381556767340916,5.2967370875511355e-05,1322.4573376520166,15363.134748238625,2168,0.0447574283898071,-inf,2073.000566264202
37,206.34120292499998,1327,17745,0.840625124319978,5.120143283712864e-05,1322.5645880993654,16163.226007383777,2198,0.044596448001139044,-inf,2112.8723413893454
38,206.88274729999998,1320,18376,0.8415937915656597,4.9342975584290554e-05,1322.058189313436,16955.488210378164,2213,0.044063277196771465,-inf,2151.2067770504013
39,207.424186325,1311,18720,0.8431564976534377,4.843221883241069e-05,1321.152030623545,17730.42725769519,2222,0.044121751356326136,-inf,2187.7250900359727
40,207.96552,1309,19067,0.844165982526256,4.753722167621669e-05,1320.387868354864,18484.914290244044,2229,0.043734243942119354,0.1914498997130317,2222.970622211106
41,208.506748325,1315,19487,0.8476484869242688,4.6645855542827905e-05,1319.648395207114,19221.388276064772,2252,0.043707166643629745,0.06254110091322328,2257.269768284629
42,209.0478713,1320,19873,0.8491768105118729,4.5770323425422996e-05,1318.9169177104552,19936.431380098828,2290,0.044397213722660304,0.014596081317066415,2290.3313325329696
43,209.588888925,1318,20415,0.8502736512177026,4.4523938378682653e-05,1318.6010328659513,20622.718906430106,2309,0.04412322293327451,0.022744820148672434,2321.4964551858034
44,210.12980119999997,1314,20882,0.8513731200582484,4.350843826953436e-05,1318.9851638768462,21278.093546852295,2313,0.04346492983126483,0.07601078646291791,2350.8879476318375
45,210.670608125,1316,21352,0.8534308197221572,4.2594870219712377e-05,1319.6256087340341,21889.57104351133,2331,0.04323379327300806,0.12019742824369294,2378.5885524020473
46,211.2113097,1307,21764,0.8557212941711507,4.183024364135263e-05,1320.0315748940832,22454.719427393167,2358,0.04396358606706161,0.19836038962805747,2403.7115902964497
47,211.751905925,1311,22012,0.8575135521308375,4.1423774316740134e-05,1320.4295454030416,22970.514507689426,2378,0.044199167195961724,0.22979108888042335,2425.4231579423754
48,212.29239679999998,1321,22356,0.8580327959771828,4.079072003694713e-05,1320.7162110126817,23426.095404198964,2397,0.043890814759755106,0.10401198205369333,2443.5753697705027
49,212.83278232499998,1327,22804,0.8587529108532552,3.998477025903316e-05,1320.9426940587302,23826.700151758352,2406,0.04314356710949678,0.07592925349395456,2458.250560601552
50,213.37306249999997,1329,23282,0.8598387128136875,3.9167253350962855e-05,1321.459738612401,24173.760379623087,2416,0.042574804392496626,0.06923671066056868,2469.5353688644796
51,213.91323732499998,1327,23847,0.8611437003932625,3.823906307252498e-05,1322.1030374413663,24459.248136990172,2434,0.04233064282128515,0.04252022401114895,2477.545765475954
52,214.45330679999998,1343,24516,0.8624756676121401,3.721899053260864e-05,1322.7265170218777,24718.109968515233,2481,0.042355211226108636,0.04265982470469162,2484.3967473781486
53,214.993270925,1347,25068,0.8630074298534857,3.6381578763689795e-05,1322.4631588484199,25054.448096219137,2515,0.042493683995989684,0.042566093505872794,2494.8275838636864
54,215.5331297,1327,25595,0.8629495266956824,3.555915306970835e-05,1321.4827515911772,25502.903689777308,2526,0.042635424530580314,0.042422430070223296,2510.3903825680736
55,216.07288312499998,1318,26140,0.8648478670709356,3.48419896491393e-05,1320.8591134566782,25990.400394119413,2546,0.04278596328914306,0.0422905862434746,2528.803506308135
56,216.61253119999998,1326,26652,0.8650803831098881,3.4157797643129124e-05,1320.4413463498352,26481.505538063775,2570,0.04249230026805263,0.042194319076434186,2548.2409114588745
57,217.152073925,1324,27000,0.8652291434094919,3.3697972558400526e-05,1320.362998029375,26980.21513511013,2586,0.04252684136870146,0.042132212005628285,2569.218328840921
58,217.69151129999997,1310,27253,0.8680312398394996,3.345916971204177e-05,1320.6811026297057,27493.167319757562,2588,0.04276081889198938,0.0420792126609263,2591.5348026002357
59,218.230843325,1311,27733,0.868212549145114,3.28594561026839e-05,1320.7828263380568,28021.800493781884,2594,0.042158682179743445,0.04201570151733914,2614.40653242424
60,218.77006999999998,1317,28363,0.868144571802742,3.2098815788018264e-05,1320.9923894085682,28559.851887924437,2611,0.04153586762969563,0.041932528967382,2637.292622709411
61,219.30919132499997,1313,29048,0.8681762475955156,3.1302550841734835e-05,1321.2220208837998,29096.836259031363,2637,0.04144457731445692,0.041844445379187106,2659.812725089985
62,219.84820729999998,1315,29567,0.868951283960652,3.0757159987280616e-05,1321.1550431493097,29634.57971867936,2659,0.04133762302290515,0.0417571043997415,2682.2193028154147
63,220.38711792499998,1319,29990,0.8691522224557424,3.0314681122239978e-05,1321.2019751296493,30184.41144759733,2685,0.041409854412979806,0.04166630900774034,2705.097805159748
64,220.9259232,1325,30624,0.8692686507714266,2.9668884629899537e-05,1321.1930508052026,30753.405558449205,2719,0.041358425174079956,0.041547034275365324,2727.8119549706153
65,221.464623125,1322,31262,0.8701622824311823,2.906353648734744e-05,1321.045255838159,31331.011868897902,2746,0.041386475957982755,0.04142533314478731,2750.4710865477737
66,222.0032177,1319,31690,0.86932404321908,2.8623490936060058e-05,1320.411221092185,31911.044848127323,2765,0.041389567893542846,0.041300839620122126,2772.832884096982
67,222.54170692499997,1326,32088,0.8705973257298546,2.8301063836221786e-05,1319.9700559468815,32490.523114905718,2788,0.04137615532855625,0.04117240279739495,2795.020272259794
68,223.0800908,1331,32599,0.8704844215444587,2.783946595703143e-05,1319.6239325918793,33068.45638632748,2817,0.0413694464121487,0.04107043091057419,2817.803166549584
69,223.61836932499997,1323,33032,0.8703398065724872,2.7447721674366496e-05,1318.773811411332,33647.50569661763,2826,0.04125392567657284,0.04098095587248022,2840.8007882397696
70,224.1565425,1312,33768,0.8697053263836744,2.6796442148868447e-05,1317.9309610636456,34225.78117284584,2831,0.04070379562413117,0.04087581051476195,2863.345353235579
71,224.69461032499999,1304,34472,0.8700422735223692,2.6231375829786817e-05,1317.2387823053496,34802.411198440976,2850,0.04055370703285042,0.04076498995705795,2885.7423271194716
72,225.23257279999999,1307,35169,0.8700397124616915,2.5693689459030523e-05,1316.2726222564245,35373.76690298693,2886,0.0405703356558092,0.040676683274410104,2907.9701238985604
73,225.77042992499997,1317,36139,0.8700678242154535,2.498615312777708e-05,1315.4123083195293,35933.37994065481,2923,0.04012776192320999,0.0405965495468542,2929.693401889001
74,226.30818169999998,1308,36813,0.8699872642519537,2.4503232340570447e-05,1314.9085369996806,36480.8837572758,2949,0.0402098042708761,0.04051328969868592,2951.0448254773037
75,226.84582812499997,1295,37282,0.8700242014773532,2.417606917712933e-05,1314.4748691929349,37022.70067272121,2978,0.04068832442510866,0.04041956865750741,2972.03166549633
76,227.3833692,1316,37872,0.8696880407569096,2.3790569010748158e-05,1314.0031484291578,37554.84253323899,3028,0.04072945414640085,0.04032080325534622,2992.527848875342
77,227.92080492499997,1315,38183,0.87010037851645,2.36004225484553e-05,1313.2879793426555,38074.24671000403,3034,0.04056912636079466,0.04021919240581753,3012.1506489387625
78,228.45813529999998,1327,38366,0.8693067287349536,2.3470037763842265e-05,1313.1282475254,38584.47029377715,3051,0.040462345104864066,0.040114254372707145,3031.6031167183273
79,228.99536032499998,1344,38685,0.8691277262341458,2.327542717747639e-05,1313.3379238487598,39077.69002695342,3083,0.04047596786163144,0.040019357496549675,3050.940768760276
80,229.53248,1328,39277,0.86926662631248,2.2906180039328573e-05,1312.8254547101606,39547.118349225726,3093,0.04042940776941493,0.039940918048932336,3069.137941969181
81,230.069494325,1319,40175,0.8686441253792921,2.2355469564013078e-05,1312.0111440802486,40000.226415093566,3116,0.0401727788065315,0.03987653078195228,3086.768918888251
82,230.60640329999998,1309,40793,0.868302707705708,2.1991254880602474e-05,1311.4353892500146,40430.003624090365,3115,0.03971620631436807,0.03980917734432374,3103.4218895104623
83,231.143206925,1297,41203,0.8687016218294412,2.17686969836476e-05,1310.8041631746787,40817.01415660526,3116,0.03959725981325499,0.03974552640167593,3118.093433599795
84,231.67990519999998,1302,41433,0.8683284847277679,2.1637349797607034e-05,1310.025368637996,41159.76930394721,3115,0.03922851518306155,0.03968705848617673,3130.52046478963
85,232.216498125,1305,41714,0.8683608504247778,2.1489293237268377e-05,1309.4284355251284,41475.1556773645,3131,0.03923944945125206,0.03962316625640834,3141.742168565479
86,232.75298569999998,1308,42198,0.868249886800152,2.1233795226220396e-05,1308.8467462456429,41767.987746041006,3156,0.03924005357805529,0.03954963724143027,3151.7593376972823
87,233.289367925,1310,42686,0.867778574191436,2.09729933824303e-05,1308.1734127613058,42032.097510701584,3165,0.038904902724408205,0.03946594995280564,3159.97386124255
88,233.8256448,1310,42954,0.8676471171202086,2.083486497743273e-05,1307.3279575981085,42255.89404063431,3175,0.03885702318291204,0.03939247674473436,3166.6326304105946
89,234.36181632499998,1304,42970,0.8677489292852631,2.0826307523766696e-05,1306.612176946225,42430.214863303,3191,0.039299242297347756,0.039335016052950214,3171.7972321003267
90,234.89788249999998,1296,42964,0.8672589311593729,2.0813548314278894e-05,1306.0603864186935,42577.512990100884,3194,0.039504114700501344,0.039273173914372864,3175.6874221386056
91,235.433843325,1306,43061,0.8668004592010585,2.0759201513616536e-05,1305.2414097714307,42707.6371378732,3198,0.03927640926376249,0.03922032886504898,3178.867086457163
92,235.9696988,1302,43251,0.8665578153052318,2.065741293726267e-05,1304.4013001426738,42803.3949353318,3211,0.039435001297234436,0.03917738477946739,3180.908106638821
93,236.505448925,1301,43367,0.8666098942893835,2.0601195604273845e-05,1303.61052345464,42857.796529931904,3213,0.03938948599537159,0.03914141123516151,3181.2952501754817
94,237.04109369999998,1315,43482,0.8664654382940954,2.0548425031282648e-05,1302.8996126752338,42878.693016828554,3207,0.03887762015918677,0.039112153581445715,3180.5222768352014
95,237.576633125,1310,43523,0.8658853313998153,2.0512290796669635e-05,1302.1165598314549,42862.57659290049,3203,0.03882976647809562,0.03909706421011682,3178.7108201770666
96,238.11206719999998,1305,43518,0.8659634438688039,2.0514141233004143e-05,1301.5288001993001,42813.405241340995,3197,0.03881275521284384,0.039063952573108074,3174.9120478379423
97,238.64739592499998,1302,43491,0.8653764850454776,2.0511898481724565e-05,1300.8021699245485,42742.28444585299,3198,0.038890559521349774,0.039021636994575615,3169.441776710623
98,239.1826193,1298,43406,0.865240351462597,2.054812271925993e-05,1300.2609572130493,42661.78429862429,3202,0.039123625657470906,0.03898646633132229,3164.1026070805074
99,239.71773732499997,1292,43305,0.8654717432609225,2.06000938581135e-05,1299.972456907266,42590.23810278746,3198,0.03926377889356433,0.03894176835921716,3159.141701963744
100,240.25275,1293,42964,0.8654328986505,2.076822967172614e-05,1299.397721352667,42520.46091644123,3178,0.03914811293120378,0.03890001160582318,3154.050012457753
101,240.787657325,1295,42661,0.8649750843904328,2.0910290682938472e-05,1298.7710933429728,42446.76919069433,3155,0.03889314067026556,0.038879886858777746,3149.636435706298
102,241.3224593,1301,42452,0.8650023747478218,2.1020203026604987e-05,1298.8093501551314,42384.46116559751,3147,0.03880329478711281,0.038865386606240726,3146.566807855157
103,241.85715592499997,1300,42155,0.864426750181391,2.1158407788064888e-05,1298.6413055788105,42322.589277219515,3144,0.03901610396119165,0.03885604572668857,3143.559129312042
104,242.3917472,1295,41940,0.8640504083213235,2.1258467420871535e-05,1298.7521121655961,42253.9759450942,3127,0.03894551231503665,0.0388470684111215,3140.5669437585757
105,242.92623312499998,1302,41879,0.8638615542876957,2.1289438703888798e-05,1299.65138508231,42189.69747899079,3119,0.03868291012496595,0.03883350803479441,3138.2311037622003
106,243.46061369999998,1304,41522,0.8647030136247108,2.1500398170588064e-05,1300.3054655824349,42146.26596298816,3096,0.03852871352169381,0.03882604579732052,3136.863167908613
107,243.994888925,1305,41298,0.863747888775786,2.159747677783077e-05,1300.5550295589685,42130.36560284411,3088,0.038508301094872265,0.03881571749306143,3136.241455072535
108,244.52905879999997,1307,41542,0.8628771528607923,2.14459339595077e-05,1300.6138530883804,42131.0085845651,3107,0.03860268112711386,0.03879527522148926,3135.8015130579925
109,245.063123325,1298,41731,0.8633129275796555,2.135169113297691e-05,1300.5497746268068,42150.08731794524,3122,0.038945484626549884,0.038774620688626436,3136.0537724523174
110,245.59708249999997,1290,41535,0.8623491049005171,2.1427484281290027e-05,1300.7267661781443,42195.42193481085,3102,0.038826601517697526,0.0387330011204777,3136.565109062433
111,246.130936325,1293,41285,0.862505803534046,2.156695848004716e-05,1300.957009218757,42278.89895580793,3088,0.03871269047168466,0.03868859100713533,3138.6237966884264
112,246.66468479999997,1290,41306,0.8631762817630669,2.157077873258364e-05,1301.4280731160138,42408.29814944765,3104,0.03912939262090673,0.03864476265157203,3142.9529094656123
113,247.19832792499997,1296,41609,0.8629529675416884,2.1406319736603287e-05,1302.2620444403924,42585.66382024427,3111,0.038852470321934965,0.038585181790128535,3148.9629663185424
114,247.7318657,1295,42215,0.8621360146885437,2.1068817563258645e-05,1302.9781422002513,42804.563931232056,3123,0.038513798505636805,0.038520149105020336,3156.387958957107
115,248.265298125,1296,42354,0.8624878814902607,2.1006573176731957e-05,1303.4605313823392,43057.772339123505,3141,0.03875712751107046,0.03846800751128964,3165.719767152083
116,248.79862519999998,1304,42196,0.862427427307537,2.1090370422271764e-05,1303.8081949760785,43337.41735939577,3137,0.038658648984024144,0.03842167180738427,3176.335024575807
117,249.33184692499998,1304,42439,0.8621956715984717,2.09601476017618e-05,1304.3161566513147,43634.29606559522,3141,0.038503791144436424,0.03837704046251216,3188.0869555368704
118,249.8649633,1313,42962,0.8614594306460737,2.068379626512218e-05,1304.9000883371966,43964.15415977628,3171,0.03843049346059701,0.03833664987424684,3201.5253573126747
119,250.397974325,1322,43435,0.861591555373828,2.04590400915116e-05,1305.2705384040157,44333.976216901,3198,0.038381159211675765,0.03829430177491814,3216.313393281779
