,x_(nm),baseline_dark,baseline_light,baseline_mirror,baseline_calibration,baseline_dark_smoothed,baseline_light_smoothed,raw_signal,calibrated_signal,calibrated_signal_smoothed,raw_signal_smoothed
0,186.23,1267,1293,0.3621226043733797,0.013927792475899219,1248.919728317064,4170.697815975293,1275,0.11142233980719375,,1496.1536975377169
1,186.775442325,1262,1294,1.18800459154587,0.037125143485808434,1256.2958346376765,3184.1988964461834,1272,0.3712514348580843,,1419.2085919095923
2,187.3207793,1259,1287,1.908567993433533,0.06816314262262617,1263.1408020586073,2321.0121990289463,1276,1.1587734245846448,,1352.270553452797
3,187.86601092499998,1263,1288,1.7279185264672412,0.06911674105868965,1269.4735362456543,1576.9257729765045,1276,0.8985176337629655,,1294.988449703379
4,188.41113719999998,1269,1295,1.043047789334166,0.0401172226666987,1275.3129428646155,947.7276675417797,1268,-0.0401172226666987,,1247.0111481973872
5,188.956158125,1271,1295,0.840365554154959,0.03501523142312329,1280.677927581289,429.2059319776931,1261,-0.3501523142312329,,1207.9875164708699
6,189.50107369999998,1280,1296,0.8202728553565946,0.05126705345978716,1285.5873960614726,17.148615537166734,1265,-0.7690058018968073,,1177.5664220598753
7,190.045883925,1296,1309,0.837733819880384,0.06444106306772185,1290.0602539709644,-292.65623252687783,1285,-0.7088516937449403,,1155.3967325004521
8,190.59058879999998,1294,1313,0.8116271105193998,0.04271721634312631,1294.1154069755626,-504.42056296151986,1289,-0.21358608171563154,,1141.1273153286488
9,191.135188325,1301,1318,0.8262856362484797,0.04860503742638116,1297.771760741065,-622.3563265138373,1290,-0.5346554116901928,,1134.4070380805138
10,191.67968249999998,1310,1326,0.8012221689422371,0.05007638555888982,1301.0482209332695,-650.6754739309072,1293,-0.8512985545011269,,1134.884768292095
11,192.22407132499998,1305,1309,0.7775424502505143,0.19438561256262857,1303.9636932179744,-593.5899559598092,1295,-1.9438561256262856,,1142.2093734994419
12,192.7683548,1295,1293,0.7753865851703869,-0.38769329258519347,1306.5370832609776,-455.31172334762414,1297,-0.7753865851703869,,1156.0297212386022
13,193.312532925,1295,1295,0.7956261498651602,inf,1308.787296728077,-240.05272684142528,1300,inf,,1175.9946790456243
14,193.8566057,1302,1311,0.7908861747409445,0.08787624163788271,1310.7332392850708,47.97508281170758,1307,0.43938120818941356,,1201.7531144565571
15,194.400573125,1304,1329,0.7942231778648126,0.031768927114592505,1312.3938165977568,404.55975486469106,1311,0.22238248980214753,,1232.9538950074484
16,194.9444352,1303,1339,0.7947581770897779,0.02207661603027161,1313.7879343319332,825.4893385704536,1313,0.2207661603027161,,1269.2458882343476
17,195.488191925,1315,1349,0.7914877943554887,0.02327905277516143,1314.934498153398,1306.5518831819131,1323,0.18623242220129144,,1310.2779616733023
18,196.0318433,1326,1350,0.7911116722494277,0.03296298634372615,1315.852413727949,1843.5354379519931,1327,0.03296298634372615,,1355.6989828603614
19,196.575389325,1323,1331,0.7900325230816138,0.09875406538520172,1316.5605867213842,2432.2280521336115,1321,-0.19750813077040344,,1405.1578193315734
20,197.11883,1312,1320,0.798472358442206,0.09980904480527575,1317.077922799502,3068.417774979694,1303,-0.8982814032474817,,1458.3033386229863
21,197.662165325,1319,1333,0.7981102791346143,0.05700787708104388,1317.4233276281,3747.8926557431623,1305,-0.7981102791346143,,1514.7844082706486
22,198.2053953,1329,1333,0.8040599544843242,0.20101498862108105,1317.6157068729765,4466.440743676935,1309,-4.020299772421621,,1574.2498958106091
23,198.74851992499998,1321,1321,0.8074165803696804,inf,1317.6739661999293,5219.8500880339325,1310,-inf,,1636.3486687789161
24,199.2915392,1326,1321,0.8060625325032217,-0.16121250650064434,1317.6170112747564,6003.90873806708,1321,0.8060625325032217,,1700.7295947116177
25,199.83445312499998,1345,1347,0.8122546130835153,0.40612730654175766,1317.4637477632311,6814.4047430291575,1335,-4.061273065417577,,1767.0415411447257
26,200.3772617,1339,2374,0.8144257223941842,0.0007868847559364099,1318.2349090579373,7535.777163695524,1414,0.05901635669523074,,1825.1448503929523
27,200.919964925,1318,6531,0.8150182986479615,0.0001563434296274624,1318.4988787967764,8274.409567600467,1741,0.0661332707324166,,1884.9659561937622
28,201.4625628,1310,11314,0.8232603193402961,8.229311468815435e-05,1318.5556864254881,9030.580647353107,2114,0.0661636642092761,,1946.132256676218
29,202.005055325,1311,13329,0.8194894939197722,6.818850839738495e-05,1318.8800425830457,9803.105755509565,2292,0.06689292673783463,,2008.6288477654825
30,202.5474425,1314,14254,0.8269202298982968,6.390419087312959e-05,1319.2325986998321,10589.65426170448,2379,0.068057963279883,,2071.7118621032923
31,203.089724325,1310,14947,0.8298864771900701,6.085550173719074e-05,1319.0322317606037,11389.469727513428,2428,0.06803645094217925,,2134.46612607303
32,203.63190079999998,1308,15621,0.8293789756785952,5.7945851720715096e-05,1318.7662461210646,12203.438696232977,2493,0.06866583428904739,,2197.713719450002
33,204.173971925,1308,16155,0.8303112569560028,5.592451383821667e-05,1319.0824480735437,13029.556773652608,2540,0.06889900104868293,-inf,2263.000838071034
34,204.71593769999998,1315,16528,0.832804584655424,5.4742955673136396e-05,1319.2294955717884,13859.335454936427,2579,0.0691950959708444,-inf,2328.958979818298
35,205.257798125,1324,16855,0.8371769300637781,5.3903607627569254e-05,1319.5124917891433,14686.205712473387,2600,0.06878100333277837,-inf,2394.059638949874
36,205.7995532,1314,17331,0.8381556767340916,5.2329130095154626e-05,1320.2439013340934,15504.886475344556,2621,0.0683941730343671,-inf,2457.879498969352
37,206.34120292499998,1314,17936,0.840625124319978,5.0573043215014925e-05,1320.9736800380276,16315.16045663517,2660,0.06807131616741009,-inf,2520.866067181542
38,206.88274729999998,1317,18589,0.8415937915656597,4.8725902707599567e-05,1320.903938934039,17114.525017553864,2701,0.0674366493473178,-inf,2582.6071032185964
39,207.424186325,1303,18955,0.8431564976534377,4.7765493862080084e-05,1320.4228408344218,17894.670026500822,2716,0.06749264282711916,-inf,2642.5030918027082
40,207.96552,1296,19260,0.844165982526256,4.6992094329005564e-05,1320.2379442342722,18654.55333076591,2735,0.067621623739439,-inf,2701.0322770617163
41,208.506748325,1300,19645,0.8476484869242688,4.620596821609533e-05,1319.8993861695367,19396.839407460724,2769,0.06787656730944404,-inf,2758.373892953355
42,209.0478713,1326,20034,0.8491768105118729,4.539110597134236e-05,1319.5087091440098,20116.782554530862,2808,0.06726961904952937,-inf,2814.092595528724
43,209.588888925,1330,20581,0.8502736512177026,4.416776537414693e-05,1319.527305261702,20809.35704092918,2832,0.06633998359196869,inf,2867.4924233843926
44,210.12980119999997,1328,21040,0.8513731200582484,4.319060065230562e-05,1319.922942761985,21470.784457178685,2860,0.06616800019933221,inf,2917.9477451357343
45,210.670608125,1327,21541,0.8534308197221572,4.221978924122673e-05,1320.4367482841942,22086.746404221645,2894,0.06615840974100229,inf,2964.37060862075
46,211.2113097,1315,21989,0.8557212941711507,4.1391181879227564e-05,1320.815126050395,22656.226868105296,2917,0.06630867337052256,inf,3006.4610523454085
47,211.751905925,1324,22229,0.8575135521308375,4.1019543273419633e-05,1321.4820041223784,23176.34345058734,2946,0.06653369918948665,inf,3044.2338671317
48,212.29239679999998,1343,22583,0.8580327959771828,4.039702429271106e-05,1322.067158939022,23635.00534553399,2982,0.06621072281575342,inf,3076.5471924618314
49,212.83278232499998,1342,23029,0.8587529108532552,3.959758891747384e-05,1322.1197762123463,24037.327051574888,3023,0.06656354697027353,0.13470880226766735,3103.6995854945158
50,213.37306249999997,1335,23485,0.8598387128136875,3.88189035130333e-05,1322.724410518899,24384.410201816114,3077,0.06762252991970401,0.17728422032232696,3126.936238646342
51,213.91323732499998,1326,24047,0.8611437003932625,3.79007834335312e-05,1323.8459987768438,24667.9128179569,3117,0.06788030312945438,0.06729879356289521,3145.293030419655
52,214.45330679999998,1333,24702,0.8624756676121401,3.6906828174596266e-05,1324.8468368479214,24921.803846066254,3145,0.06687517265236843,0.0670089510036261,3160.7055652449058
53,214.993270925,1331,25280,0.8630074298534857,3.603521774827699e-05,1325.1008629866787,25253.17778432079,3185,0.06680929370530554,0.0668851989891195,3181.1578065187728
54,215.5331297,1318,25832,0.8629495266956824,3.5202314053017966e-05,1324.7981607737179,25699.01436046067,3214,0.06674358744452207,0.06675083022825999,3209.9533398264352
55,216.07288312499998,1314,26390,0.8648478670709356,3.448906791637166e-05,1325.1423135291598,26184.646832317332,3251,0.0668053245540119,0.06663872183042592,3243.3550929805265
56,216.61253119999998,1327,26877,0.8650803831098881,3.3858332019956484e-05,1326.069809055672,26677.169041200876,3313,0.06724264739163358,0.06655639649434283,3278.1028335862025
57,217.152073925,1333,27220,0.8652291434094919,3.3423306810734806e-05,1327.2736868331986,27179.065437495236,3352,0.06748165645087358,0.06646824465303885,3313.5671702642685
58,217.69151129999997,1326,27507,0.8680312398394996,3.315500706006263e-05,1328.2481596411894,27694.111554055053,3344,0.06690680424720638,0.06640991381975589,3350.8040725723613
59,218.230843325,1327,27944,0.868212549145114,3.261872296446309e-05,1328.889510521164,28223.725769552562,3353,0.06608553272600222,0.06635275682723195,3388.6176583840434
60,218.77006999999998,1327,28498,0.868144571802742,3.195114540512833e-05,1329.7801762214062,28760.536003079924,3401,0.06626667557023616,0.06628404366729752,3426.227502321617
61,219.30919132499997,1319,29144,0.8681762475955156,3.120130269885052e-05,1330.9414482773986,29297.648757615694,3460,0.06680198907823896,0.06620657131352588,3463.725271240505
62,219.84820729999998,1311,29673,0.868951283960652,3.063787052960482e-05,1331.73976760513,29839.42542299882,3496,0.06694374710718654,0.06611689285965636,3500.8444358874954
63,220.38711792499998,1324,30167,0.8691522224557424,3.0133905018747787e-05,1332.4612335499985,30391.439851411676,3537,0.06668633180648885,0.06601167529352601,3538.070986885252
64,220.9259232,1335,30853,0.8692686507714266,2.9448765186375315e-05,1333.110942490178,30962.226777502856,3592,0.06646586302564908,0.06588250145053186,3576.0462977643206
65,221.464623125,1330,31493,0.8701622824311823,2.884866500119956e-05,1333.1873881627869,31544.571428570824,3627,0.06626538350775539,0.06576037182382097,3614.5962988968477
66,222.0032177,1336,31921,0.86932404321908,2.8423215406868726e-05,1332.4336451561503,32129.681623592216,3641,0.06551551151283241,0.06565599541851601,3653.2905162064126
67,222.54170692499997,1336,32354,0.8705973257298546,2.8067487450185526e-05,1331.3506308183396,32714.077079887928,3653,0.06503236842207986,0.06556952909879822,3692.1061858705034
68,223.0800908,1334,32808,0.8704844215444587,2.7657254290667177e-05,1331.2608439602,33296.960497405875,3684,0.06499454758306787,0.06547272462278177,3731.6437744908567
69,223.61836932499997,1334,33226,0.8703398065724872,2.729022345956626e-05,1331.6006251556971,33880.32147953456,3720,0.0651144731745251,0.06533272934575289,3770.2866882601375
70,224.1565425,1329,33977,0.8697053263836744,2.6638854642969687e-05,1332.083150241203,34461.959228973945,3773,0.06510536074741792,0.06517506842907189,3808.272191895553
71,224.69461032499999,1322,34657,0.8700422735223692,2.6099963207510698e-05,1332.3073229291463,35042.47774581464,3812,0.06498890838670164,0.06501591682991369,3845.9709619696196
72,225.23257279999999,1317,35336,0.8700397124616915,2.5575111333716204e-05,1332.1810233527115,35618.11434007497,3858,0.06498635789897288,0.06485654196575227,3882.8426691430545
73,225.77042992499997,1330,36314,0.8700678242154535,2.4870450040460025e-05,1332.4254683005022,36181.88011053408,3938,0.06486213370551974,0.0647016295767665,3919.230718702501
74,226.30818169999998,1343,37000,0.8699872642519537,2.4398779040635884e-05,1332.969081972386,36734.834175178796,3999,0.06480315713192891,0.06454501695458577,3955.3584905659623
75,226.84582812499997,1332,37502,0.8700242014773532,2.405375176879605e-05,1333.1283381276785,37281.90509411241,4016,0.06456026974744859,0.0644065939230559,3991.429296246725
76,227.3833692,1338,38150,0.8696880407569096,2.3625123349910616e-05,1332.9415162291075,37819.16750096193,4056,0.06421308526505705,0.06430601223649692,4027.5094792633263
77,227.92080492499997,1343,38574,0.87010037851645,2.3370319854864225e-05,1332.4774287073064,38342.750277468745,4091,0.0642216389611669,0.06423327140920795,4063.3800992094175
78,228.45813529999998,1353,38793,0.8693067287349536,2.3218662626467778e-05,1332.6117692359708,38855.55545991907,4130,0.06447822611370102,0.06414806675347312,4098.901764479298
79,228.99536032499998,1369,39060,0.8691277262341458,2.3059290712216335e-05,1332.9673831796615,39352.336293007014,4160,0.06435848037779579,0.06408079578264239,4134.311060273087
80,229.53248,1352,39621,0.86926662631248,2.2714641780879562e-05,1332.9839860472237,39825.08213096483,4163,0.06385085804605245,0.0640253050998018,4168.230990509332
81,230.069494325,1336,40426,0.8686441253792921,2.2221645571227734e-05,1332.66003759992,40283.27778658556,4201,0.06366501456156747,0.0639882908284969,4201.64905207358
82,230.60640329999998,1320,41008,0.868302707705708,2.1878217791415744e-05,1332.451131395929,40718.36578404869,4228,0.06362185733743699,0.06400297189837294,4235.540510543759
83,231.143206925,1321,41480,0.8687016218294412,2.1631555114157254e-05,1332.3389657749638,41109.29790029141,4236,0.06305598315776839,0.06406240942488234,4267.980747015706
84,231.67990519999998,1328,41757,0.8683284847277679,2.147786204773227e-05,1331.8354889125203,41456.47679449059,4268,0.06314491442033288,0.06412705752238158,4297.0740673627115
85,232.216498125,1323,42073,0.8683608504247778,2.1309468722080438e-05,1331.0788466329673,41776.0053002325,4322,0.06390709669751923,0.06418927924471755,4324.062357018196
86,232.75298569999998,1320,42524,0.868249886800152,2.1071980555289585e-05,1330.0364674171299,42070.23889555741,4356,0.06397453296585918,0.06427201231621604,4349.861922127258
87,233.289367925,1319,42943,0.867778574191436,2.0848034167582068e-05,1329.0916895059656,42333.44870778419,4397,0.0641702491678176,0.06439269404364033,4375.010849622784
88,233.8256448,1317,43286,0.8676471171202086,2.0673523722752713e-05,1328.048857278735,42555.79954245767,4440,0.06456341458615672,0.06455923051810208,4398.885750526541
89,234.36181632499998,1318,43357,0.8677489292852631,2.064152166524568e-05,1327.3039932954061,42728.929805883796,4464,0.06493822715886291,0.06475851468802027,4420.707354639884
90,234.89788249999998,1318,43296,0.8672589311593729,2.065984399350548e-05,1326.9391152687238,42874.88235294036,4462,0.06495454951558123,0.06496629411850392,4441.30639425573
91,235.433843325,1333,43350,0.8668004592010585,2.0629756032107444e-05,1326.3174703843545,43003.63500871964,4469,0.06469491491668894,0.06519003691065468,4461.150218577912
92,235.9696988,1344,43505,0.8665578153052318,2.0553540364441826e-05,1325.9646198101627,43097.82663253899,4486,0.06457922382507622,0.06541001931947922,4478.7247502773835
93,236.505448925,1335,43609,0.8666098942893835,2.0499831912981585e-05,1325.4014586966607,43152.73360664939,4483,0.06453347086206603,0.06563646483328528,4493.3883440167665
94,237.04109369999998,1324,43737,0.8664654382940954,2.042924193747425e-05,1324.332918072864,43174.35932863629,4516,0.0652101402644178,0.06588321109917435,4506.080953135885
95,237.576633125,1315,43790,0.8658853313998153,2.0385764129483584e-05,1323.0621305125571,43156.94817549579,4543,0.06580524660997301,0.06615237482114872,4516.678996126666
96,238.11206719999998,1320,43789,0.8659634438688039,2.039048350252664e-05,1321.773381050508,43106.26290516124,4561,0.06608555703168884,0.06642212625697622,4524.68604045383
97,238.64739592499998,1316,43784,0.8653764850454776,2.0377142437729056e-05,1320.4420032163555,43032.05483702833,4583,0.06657212434406083,0.06670162199595117,4531.128338127617
98,239.1826193,1307,43699,0.865240351462597,2.0410463093569472e-05,1319.1170128428478,42947.148044122485,4595,0.06710960265165643,0.0669961085327321,4537.626333552202
99,239.71773732499997,1313,43564,0.8654717432609225,2.0484053472365684e-05,1318.3132120772584,42870.47611497347,4602,0.06737205187061074,0.06729046884085245,4545.455117896127
100,240.25275,1326,43225,0.8654328986505,2.065521608273467e-05,1317.830732292892,42794.676663117265,4603,0.06768714310312152,0.06760326016701315,4554.59224444486
101,240.787657325,1333,42897,0.8649750843904328,2.0810679539756346e-05,1317.0659131576908,42715.15033183003,4613,0.06825902889040082,0.06792725722638694,4563.844277333488
102,241.3224593,1335,42706,0.8650023747478218,2.090842316472461e-05,1316.5858116831387,42646.64157738485,4615,0.06857962798029672,0.06825004481243414,4574.306643411994
103,241.85715592499997,1322,42441,0.864426750181391,2.102256256673049e-05,1316.1641713288836,42582.5685292977,4604,0.06899605034400948,0.0685796151049253,4585.613332125215
104,242.3917472,1311,42213,0.8640504083213235,2.1124893851677753e-05,1315.8365081881554,42510.741602300484,4590,0.06926852693965135,0.06891540594390005,4596.8910281092685
105,242.92623312499998,1305,42186,0.8638615542876957,2.11311258112007e-05,1316.0594803959068,42440.631565833064,4608,0.06979610855439591,0.0692375638239402,4608.346599016878
106,243.46061369999998,1306,41785,0.8647030136247108,2.1361768166820098e-05,1316.1935038165957,42395.24421844129,4597,0.07030157903700494,0.06953597445061471,4620.651475684525
107,243.994888925,1310,41522,0.863747888775786,2.1479853993230528e-05,1316.3109923214317,42375.63077306314,4574,0.07011024343390444,0.06981338466405951,4633.991120976603
108,244.52905879999997,1310,41798,0.8628771528607923,2.1311923356569657e-05,1316.1822011823344,42371.59586853528,4593,0.06996704437961819,0.07007092836782343,4647.500056626335
109,245.063123325,1314,42001,0.8633129275796555,2.1218397217284526e-05,1316.0640105098391,42388.04534643965,4628,0.07031776837808092,0.07028447339227267,4660.468980044759
110,245.59708249999997,1322,41765,0.8623491049005171,2.1322580048476055e-05,1315.9902829055898,42430.48066773798,4632,0.07057773996045574,0.0704727992414104,4674.322566762465
111,246.130936325,1332,41509,0.862505803534046,2.146765073385385e-05,1315.6146232077483,42514.69913248236,4641,0.07103645627832239,0.07066509344110684,4691.485447008901
112,246.66468479999997,1320,41534,0.8631762817630669,2.1464571586091087e-05,1315.0318920020586,42646.449138145,4645,0.07136970052375287,0.07083951732338763,4711.38974835208
113,247.19832792499997,1311,41826,0.8629529675416884,2.1299591942285286e-05,1314.5808738589524,42824.844752994715,4648,0.071076738311406,0.0709882221711117,4733.842759745317
114,247.7318657,1309,42464,0.8621360146885437,2.0948512080878233e-05,1314.1383949806086,43048.40111893733,4685,0.07072217678504492,0.07111691678815257,4758.811864368298
115,248.265298125,1304,42649,0.8624878814902607,2.0860754178020575e-05,1313.4507916373846,43307.09796371295,4715,0.07115603250122818,0.07122778373418583,4785.457926566761
116,248.79862519999998,1305,42492,0.862427427307537,2.0939311610642604e-05,1312.7791795963412,43589.691838998915,4712,0.07134023465745935,0.07130938664596803,4812.576230492104
117,249.33184692499998,1299,42740,0.8621956715984717,2.0805378045859698e-05,1312.8723866905,43888.85227298383,4738,0.0715496950997115,0.07134838211792839,4839.659969648144
118,249.8649633,1304,43226,0.8614594306460737,2.054910144186999e-05,1313.3920587102511,44221.88844594357,4785,0.07153142211914944,0.07135396373746246,4868.176379985863
119,250.397974325,1319,43619,0.861591555373828,2.0368594689688605e-05,1313.619606333074,44595.73856712411,4823,0.07137155579266888,0.07132193930612943,4897.641124374184
120,250.93087999999997,1328,44276,0.861950076569216,2.0069620857064728e-05,1313.2506059027132,45011.337425535385,4877,0.07122708442172272,0.07128577763680619,4929.655937846742
