,x_(nm),baseline_dark,baseline_light,baseline_mirror,baseline_calibration,baseline_dark_smoothed,baseline_light_smoothed,raw_signal,calibrated_signal,calibrated_signal_smoothed,raw_signal_smoothed
0,186.23,1305,1305,0.3621226043733797,inf,1286.4487574742843,4208.584352302458,1303,-inf,,1515.5589990229278
1,186.775442325,1299,1301,1.18800459154587,0.594002295772935,1292.6470917088006,3214.4123686565554,1303,2.37600918309174,,1441.5776335885103
2,187.3207793,1299,1295,1.908567993433533,-0.4771419983583832,1298.3878157100607,2344.62425470754,1306,-3.3399939885086827,,1377.2969963989465
3,187.86601092499998,1298,1294,1.7279185264672412,-0.4319796316168103,1303.6859913841363,1594.9747219029641,1302,-1.7279185264672412,,1322.3815895201815
4,188.41113719999998,1297,1305,1.043047789334166,0.13038097366677076,1308.5566806370991,961.2184816903814,1294,-0.3911429210003123,,1276.4959150181603
5,188.956158125,1303,1315,0.840365554154959,0.07003046284624657,1313.0149453750216,439.1102455173436,1288,-1.0504569426936987,,1239.3044749588273
6,189.50107369999998,1299,1321,0.8202728553565946,0.03728512978893612,1317.0758475039752,24.404724831403655,1288,-0.4101364276782973,,1210.471771408128
7,190.045883925,1317,1340,0.837733819880384,0.0364232095600167,1320.7544489300317,-287.1433689198848,1297,-0.728464191200334,,1189.662306432007
8,190.59058879999998,1325,1342,0.8116271105193998,0.04774277120702352,1324.0658115592635,-499.7793242889693,1320,-0.2387138560351176,,1176.5405820964093
9,191.135188325,1333,1340,0.8262856362484797,0.11804080517835425,1327.0249972977422,-617.748429828298,1329,-0.472163220713417,,1170.7711004672797
10,191.67968249999998,1347,1347,0.8012221689422371,inf,1329.6470680515395,-645.295974090317,1327,-inf,,1172.018363610563
11,192.22407132499998,1332,1341,0.7775424502505143,0.08639360558339047,1331.9470857267277,-586.6672456274755,1332,0.0,,1179.9468735922046
12,192.7683548,1321,1338,0.7753865851703869,0.04561097559825805,1333.9401122293784,-446.1075329922205,1339,0.8209975607686449,,1194.221132478149
13,193.312532925,1317,1341,0.7956261498651602,0.03315108957771501,1335.6412094655636,-227.86212473699743,1339,0.7293239707097302,,1214.5056423343408
14,193.8566057,1325,1343,0.7908861747409445,0.043938120818941356,1337.0654393413552,63.82369058574568,1345,0.8787624163788271,,1240.4649052267257
15,194.400573125,1338,1348,0.7942231778648126,0.07942231778648126,1338.227863762825,424.7046244235644,1353,1.191334766797219,,1271.7634232212483
16,194.9444352,1351,1367,0.7947581770897779,0.04967238606811112,1339.1435446360451,850.5353882240051,1359,0.39737908854488896,,1308.0656983838533
17,195.488191925,1351,1374,0.7914877943554887,0.034412512798064725,1339.8275438670873,1337.070693434624,1368,0.5850127175671003,,1349.0362327804858
18,196.0318433,1350,1380,0.7911116722494277,0.026370389074980922,1340.2949233620236,1880.0652515029774,1370,0.5274077814996184,,1394.3395284770907
19,196.575389325,1344,1366,0.7900325230816138,0.035910569230982445,1340.5607450269256,2475.2737738766104,1353,0.323195123078842,,1443.640087539612
20,197.11883,1345,1350,0.798472358442206,0.1596944716884412,1340.6400707678654,3118.450972003082,1334,-1.7566391885728532,,1496.6024120339964
21,197.662165325,1358,1355,0.7981102791346143,-0.2660367597115381,1340.5479624909149,3805.35155732994,1339,5.054698434519224,,1552.8910040261878
22,198.2053953,1361,1362,0.8040599544843242,0.8040599544843242,1340.299482102146,4531.730241304742,1355,-4.8243597269059455,,1612.170365582131
23,198.74851992499998,1343,1366,0.8074165803696804,0.03510506871172524,1339.9096915076302,5293.3417353750365,1352,0.31594561840552715,,1674.1049987677707
24,199.2915392,1333,1360,0.8060625325032217,0.02985416787048969,1339.39365261344,6085.940750988375,1359,0.776208364632732,,1738.3594056490524
25,199.83445312499998,1350,1378,0.8122546130835153,0.02900909332441126,1338.7664273256216,6905.281999592159,1387,1.0733364530032166,,1804.5980882918861
26,200.3772617,1353,2390,0.8144257223941842,0.0007853671382779019,1338.7182948650902,7632.925071915413,1461,0.0848196509340134,-inf,1863.8429862510684
27,200.919964925,1332,6575,0.8150182986479615,0.0001554488458226133,1338.1581915784925,8377.655915196106,1792,0.07150646907840211,-inf,1924.2634714262692
28,201.4625628,1325,11444,0.8232603193402961,8.135787324244451e-05,1337.1179415162037,9141.852250333923,2169,0.06866604501662317,-inf,1985.695848150543
29,202.005055325,1325,13511,0.8194894939197722,6.724844033479175e-05,1336.028222609773,9924.34283902221,2346,0.06866065758182237,-inf,2048.59147432554
30,202.5474425,1319,14439,0.8269202298982968,6.302745654712628e-05,1334.9136560284235,10719.812860993248,2427,0.06983442185421591,inf,2112.191193458475
31,203.089724325,1317,15142,0.8298864771900701,6.002795495045715e-05,1333.6153253754076,11528.001653491363,2479,0.06975248365243121,inf,2175.9385716550355
32,203.63190079999998,1318,15847,0.8293789756785952,5.708438128423121e-05,1331.9909624226793,12352.319282429717,2522,0.06872959506621437,inf,2240.3053976307074
33,204.173971925,1316,16354,0.8303112569560028,5.521420780396348e-05,1331.0923463724857,13189.57856350062,2554,0.06835518926130679,inf,2305.8629187523625
34,204.71593769999998,1318,16736,0.832804584655424,5.4015085267571924e-05,1330.5923576977707,14029.786948741494,2585,0.06843711303401363,inf,2372.554350041858
35,205.257798125,1330,17064,0.8371769300637781,5.3208143514921704e-05,1330.4982445808257,14866.52551586644,2612,0.06821283998612962,inf,2439.238080137669
36,205.7995532,1333,17478,0.8381556767340916,5.1914256843238875e-05,1330.9349928650447,15694.515277808936,2640,0.06785193369411321,0.051751620697645495,2504.933543228564
37,206.34120292499998,1336,18113,0.840625124319978,5.010580701674781e-05,1331.0022424063714,16514.53160886965,2693,0.06799358012172678,0.025877733988657697,2569.8666787469215
38,206.88274729999998,1335,18795,0.8415937915656597,4.820124808508933e-05,1330.5980429907556,17325.528551042727,2742,0.06781915605572068,0.025052787901439444,2633.979750390672
39,207.424186325,1339,19215,0.8431564976534377,4.7166955563517435e-05,1329.9529547667871,18118.444336224708,2771,0.06754308036695697,0.024607286589470975,2696.424358422563
40,207.96552,1339,19550,0.844165982526256,4.635472969777914e-05,1329.6471720763523,18890.697433690093,2797,0.06758519589936199,0.03198221416708223,2757.653604838109
41,208.506748325,1330,19884,0.8476484869242688,4.5685484904832854e-05,1329.5011212031727,19643.25092301034,2824,0.06825411444782029,0.05352456517107163,2817.807832566935
42,209.0478713,1338,20306,0.8491768105118729,4.4768916623358964e-05,1329.8913678678762,20376.030600919225,2872,0.06867551810023265,0.05539296555450376,2876.0256857459412
43,209.588888925,1333,20863,0.8502736512177026,4.3536797297373405e-05,1330.2930077691199,21081.66789734721,2922,0.06917997090552634,0.06490674128180943,2932.107227796723
44,210.12980119999997,1312,21310,0.8513731200582484,4.257291329424185e-05,1330.6091191193204,21756.096264920645,2947,0.06960671323608542,0.07533089078814102,2985.991528686889
45,210.670608125,1313,21806,0.8534308197221572,4.164499193491227e-05,1330.9962400054105,22385.695463090466,2977,0.06929726657969401,0.08167716404298374,3036.046478968887
46,211.2113097,1324,22272,0.8557212941711507,4.084978490410305e-05,1331.4812566535793,22967.16401277448,3006,0.06870933820870133,0.022037353412999415,3082.1265713832113
47,211.751905925,1327,22515,0.8575135521308375,4.047166094632988e-05,1332.0565131712806,23498.85664454416,3035,0.06912559689633144,0.17217050233167722,3124.191555867569
48,212.29239679999998,1334,22824,0.8580327959771828,3.992707287004108e-05,1332.9028290561253,23969.020068404265,3076,0.06955296093961157,0.031546168420696616,3161.467258601493
49,212.83278232499998,1330,23314,0.8587529108532552,3.906263240780819e-05,1333.8452739586144,24382.78185236312,3106,0.06937523515626734,0.028799913186419574,3193.5231375568483
50,213.37306249999997,1329,23844,0.8598387128136875,3.8189594173381635e-05,1334.4644725814599,24740.64003714646,3148,0.0694668718013812,0.042000467423645646,3220.8937235270855
51,213.91323732499998,1330,24441,0.8611437003932625,3.726120463819231e-05,1335.2910371695593,25033.85277129672,3190,0.0693058406270377,0.0686827595071492,3243.424381073122
52,214.45330679999998,1337,25129,0.8624756676121401,3.6250658524383834e-05,1336.1734580624448,25297.530680196123,3244,0.06913000580599997,0.0691199498828693,3263.2938005390206
53,214.993270925,1350,25671,0.8630074298534857,3.548404382441041e-05,1335.9394323766987,25637.711590296007,3303,0.06930033758907353,0.06921339561935277,3288.4710185960544
54,215.5331297,1348,26172,0.8629495266956824,3.47627105501e-05,1335.3968379804496,26094.41128904342,3333,0.0690039804419485,0.06922976920787852,3322.530861401101
55,216.07288312499998,1344,26784,0.8648478670709356,3.399559225907766e-05,1335.7143763165386,26594.631180773686,3375,0.06904504787818673,0.06924752674563785,3361.4438832135984
56,216.61253119999998,1353,27323,0.8650803831098881,3.331075791720786e-05,1336.4975197625965,27099.007678542595,3430,0.06918644419404073,0.06930044223366671,3401.5666946023043
57,217.152073925,1358,27627,0.8652291434094919,3.29372699154704e-05,1337.0437382499913,27609.529910076715,3467,0.06946470225172707,0.06936523215270135,3442.530952003377
58,217.69151129999997,1350,27910,0.8680312398394996,3.26818990903426e-05,1337.263924437674,28135.029083330905,3483,0.06971049075970077,0.06939815100948418,3484.0389136786134
59,218.230843325,1344,28387,0.868212549145114,3.2104890328185264e-05,1337.3830437835256,28674.179528414592,3505,0.06937866799920836,0.06940578491425885,3525.871435366532
60,218.77006999999998,1338,28974,0.868144571802742,3.141353928943197e-05,1337.6175904323738,29221.71059367087,3544,0.06929826767248692,0.06939258388341199,3567.611157670547
61,219.30919132499997,1335,29662,0.8681762475955156,3.064836543211479e-05,1338.0602505152747,29771.20559922025,3598,0.06935725097287576,0.06935180090319173,3608.66182699488
62,219.84820729999998,1333,30215,0.868951283960652,3.0086257321537707e-05,1338.7731092436718,30322.379057282706,3644,0.06952934067007364,0.06928593175429566,3649.447144895624
63,220.38711792499998,1336,30684,0.8691522224557424,2.9615381711044788e-05,1339.7358943577174,30885.007316133404,3686,0.06959614702095525,0.06920671472980774,3690.846995401864
64,220.9259232,1337,31352,0.8692686507714266,2.8961141121819975e-05,1340.7208090783229,31464.63045595536,3742,0.06965154439797704,0.06911311372555744,3733.396384969011
65,221.464623125,1330,32006,0.8701622824311823,2.8366223837240263e-05,1342.0261840585033,32053.227207863667,3780,0.06949724840123865,0.06901003898146518,3776.987043874081
66,222.0032177,1336,32509,0.86932404321908,2.7887083155906713e-05,1343.309520034403,32642.0470905337,3804,0.06882532122877777,0.06889992199819345,3820.5347799496426
67,222.54170692499997,1332,32877,0.8705973257298546,2.759858379235551e-05,1343.8975741239635,33224.771614305464,3844,0.06932764248639704,0.06879653813350017,3862.939862737474
68,223.0800908,1334,33323,0.8704844215444587,2.7211992295615953e-05,1344.3835194454884,33805.67242746091,3884,0.06939058035382067,0.06869462157160441,3905.064372918904
69,223.61836932499997,1339,33747,0.8703398065724872,2.6855708669849643e-05,1344.7728827379751,34389.15982241887,3907,0.06896545986417388,0.06858640995925723,3946.749597952313
70,224.1565425,1333,34476,0.8697053263836744,2.624099587797346e-05,1344.695463090871,34971.889578472226,3952,0.06872516820441249,0.06847643703683894,3987.5615755735494
71,224.69461032499999,1332,35200,0.8700422735223692,2.5689213225533517e-05,1344.7171396860374,35551.768873586494,3984,0.06812779347411489,0.06835316113159795,4027.857890325864
72,225.23257279999999,1346,35877,0.8700397124616915,2.5195902593660523e-05,1344.8453872114626,36126.251919635084,4027,0.06755021485360387,0.06821672891892863,4067.6056988832493
73,225.77042992499997,1347,36852,0.8700678242154535,2.450550131574295e-05,1344.8351265034057,36688.820901944986,4100,0.06746364512224035,0.0681057239030914,4107.302317153199
74,226.30818169999998,1330,37542,0.8699872642519537,2.402483332188097e-05,1345.1418605177662,37239.474031121164,4162,0.06803832796756691,0.06801143968352695,4146.975967745509
75,226.84582812499997,1331,38044,0.8700242014773532,2.369798712928263e-05,1345.2183967926535,37785.74660807647,4205,0.06810801500955828,0.06790303986237539,4185.572085437869
76,227.3833692,1343,38699,0.8696880407569096,2.3281080435724104e-05,1344.601259371647,38323.40963555161,4266,0.06805059811362156,0.06780045966675362,4223.063466896111
77,227.92080492499997,1350,39074,0.87010037851645,2.3064902410042675e-05,1343.6154386282556,38849.054202812455,4296,0.06794920249998572,0.06770761212044045,4259.877052707794
78,228.45813529999998,1374,39318,0.8693067287349536,2.291025534300426e-05,1342.769666357083,39366.10383021058,4338,0.06790599683666462,0.06761812267128971,4296.385399442714
79,228.99536032499998,1385,39574,0.8691277262341458,2.27585882383447e-05,1342.5560261840328,39863.87376837451,4361,0.06772955859731383,0.06754609391143403,4332.732315567653
80,229.53248,1361,40033,0.86926662631248,2.2477933034559372e-05,1342.4530340437805,40334.65070556447,4360,0.06741132117064355,0.06748048061333971,4367.637862692163
81,230.069494325,1339,40906,0.8686441253792921,2.1953752505352747e-05,1342.397811954945,40792.37314548383,4400,0.06720043641888476,0.06741359503515042,4401.551813178016
82,230.60640329999998,1342,41596,0.868302707705708,2.1570594418087843e-05,1343.0624929216713,41228.78076513545,4428,0.06656685437421908,0.06733825885184883,4433.944234297407
83,231.143206925,1352,42034,0.8687016218294412,2.135346398479527e-05,1343.7858388638215,41621.985707489745,4457,0.06630250567278931,0.06728148811737532,4463.694353212897
84,231.67990519999998,1352,42306,0.8683284847277679,2.1202531736283827e-05,1344.101089492375,41971.44789236369,4480,0.06632151927109581,0.06724764516096884,4490.467688962291
85,232.216498125,1348,42572,0.8683608504247778,2.1064449117620267e-05,1344.3980384606414,42292.98197014574,4513,0.06666898145726814,0.06721139583911027,4514.9774626830995
86,232.75298569999998,1352,42934,0.868249886800152,2.0880426309464482e-05,1344.5436589729975,42592.24224784172,4561,0.06700528802707152,0.0671800193421257,4537.9405422545515
87,233.289367925,1346,43341,0.867778574191436,2.0663854606296844e-05,1344.7312283403671,42863.90310086217,4594,0.06711619976125215,0.06716545845804339,4559.650750866297
88,233.8256448,1340,43608,0.8676471171202086,2.0527281090191364e-05,1344.8383655348673,43095.94686176274,4621,0.06735000925691786,0.0671757176699,4579.189539966843
89,234.36181632499998,1337,43703,0.8677489292852631,2.04822010405812e-05,1345.3005504088167,43279.41892228507,4624,0.06732499482039041,0.0671971959913963,4595.607533579381
90,234.89788249999998,1328,43737,0.8672589311593729,2.0449879298247373e-05,1345.7090987338074,43436.89798183341,4602,0.0669529048224619,0.06722627018331354,4610.288296450566
91,235.433843325,1326,43886,0.8668004592010585,2.0366552142882015e-05,1345.433373349314,43577.08124759255,4603,0.06674119137222437,0.0672669423319453,4623.501257106528
92,235.9696988,1338,44169,0.8665578153052318,2.023202389169601e-05,1345.1395501596608,43682.85517225674,4637,0.06674544681870513,0.06730224611642455,4634.005526738908
93,236.505448925,1349,44326,0.8666098942893835,2.016450413684956e-05,1344.5909533624513,43745.55401028251,4662,0.0668050022053826,0.06737031629371625,4642.076490973659
94,237.04109369999998,1348,44403,0.8664654382940954,2.0124618239324012e-05,1343.711159935647,43775.8255000105,4696,0.0673772218652568,0.06747257963875641,4648.942965865502
95,237.576633125,1340,44409,0.8658853313998153,2.010460729062238e-05,1342.9489456159567,43771.2553851721,4719,0.06793346803501303,0.06757809279471001,4653.510702394076
96,238.11206719999998,1331,44455,0.8659634438688039,2.0080777383099988e-05,1342.2324627964133,43732.98987519453,4730,0.06825456232515686,0.06767982854674111,4655.396611474689
97,238.64739592499998,1332,44485,0.8653764850454776,2.0053680741674452e-05,1342.0791863915122,43671.98799519724,4735,0.06824267556391816,0.06776040194671677,4654.9283788986395
98,239.1826193,1335,44407,0.865240351462597,2.0088232528384963e-05,1342.4992412058905,43601.004280956826,4714,0.06787813771341279,0.06782303553172266,4653.57738567116
99,239.71773732499997,1327,44259,0.8654717432609225,2.015912939674188e-05,1342.5754377222331,43540.42164035342,4694,0.06787578867882992,0.06789016723161678,4653.168656141613
100,240.25275,1326,43901,0.8654328986505,2.0327255399894305e-05,1342.0655733991453,43480.56372737691,4691,0.06840121442064434,0.06798142807024825,4653.293370178171
101,240.787657325,1345,43604,0.8649750843904328,2.0468422925067625e-05,1341.621735486622,43417.358649119196,4696,0.0685896852219016,0.06808197141641933,4653.622754762194
102,241.3224593,1358,43399,0.8650023747478218,2.057520931347546e-05,1341.7395637500026,43367.679924799275,4682,0.06839199575799243,0.06817723515270892,4655.193345262544
103,241.85715592499997,1362,43100,0.864426750181391,2.0710785140193372e-05,1342.0303970644604,43320.62071621018,4662,0.06834559096263813,0.06827358816185318,4657.168882647309
104,242.3917472,1357,42956,0.8640504083213235,2.077094180920992e-05,1342.790301026045,43267.83200072399,4638,0.06814946007601776,0.06837888679831391,4659.766268771571
105,242.92623312499998,1355,42991,0.8638615542876957,2.0747947792479963e-05,1343.8008561915071,43217.0181204549,4623,0.06780429338582453,0.06848815005675843,4663.158236879568
106,243.46061369999998,1352,42611,0.8647030136247108,2.0957924661884942e-05,1344.3220684499956,43184.148112074196,4598,0.06802942345247852,0.06857702160679677,4666.439896713313
107,243.994888925,1338,42368,0.863747888775786,2.1051618054491496e-05,1344.0417676504308,43175.22211148528,4602,0.06871248132986024,0.06865199019205818,4670.198600194705
108,244.52905879999997,1343,42597,0.8628771528607923,2.0916205770611146e-05,1344.1157217603768,43182.81136605503,4629,0.06873065216222822,0.06870315592965201,4674.643049672611
109,245.063123325,1352,42809,0.8633129275796555,2.082429813010241e-05,1344.8508686493208,43208.168497586885,4647,0.06861606233868743,0.06872383708053277,4679.4702258260895
110,245.59708249999997,1349,42644,0.8623491049005171,2.088265177141342e-05,1345.4125574757945,43259.95349837965,4643,0.0687874549350358,0.06873090067173644,4685.51246913851
111,246.130936325,1349,42347,0.862505803534046,2.1037753147325384e-05,1345.9566241590717,43349.56109991083,4627,0.0689617548169326,0.06873865214015312,4694.510136129833
112,246.66468479999997,1344,42322,0.8631762817630669,2.1064382882597172e-05,1346.6058121361493,43480.05662642331,4614,0.06888053202609275,0.06874861554915575,4706.869396815239
113,247.19832792499997,1343,42620,0.8629529675416884,2.0906387759325736e-05,1347.2886135586048,43653.72103558321,4626,0.06863567101386639,0.06873726245124258,4721.423769507713
114,247.7318657,1331,43231,0.8621360146885437,2.057603853671942e-05,1347.7006274207538,43865.97374798892,4673,0.0687651207897163,0.0687115644275721,4737.838320233663
115,248.265298125,1330,43364,0.8624878814902607,2.0518815280255523e-05,1348.1638768714777,44112.01569684393,4696,0.06906633223334009,0.06866829855461982,4755.946182246393
116,248.79862519999998,1343,43225,0.862427427307537,2.059183962818244e-05,1348.6211918729496,44383.22763822425,4696,0.06904443827329572,0.06859346635277068,4774.328659765702
117,249.33184692499998,1348,43561,0.8621956715984717,2.042488502590367e-05,1349.0959931142008,44669.92733697167,4726,0.06899526161750259,0.06848985887090199,4792.522979002831
118,249.8649633,1352,44146,0.8614594306460737,2.0130378806516654e-05,1349.8979365330779,44991.28249790396,4769,0.06878550438186741,0.0683680689633678,4812.711386441278
119,250.397974325,1366,44537,0.861591555373828,1.9957646461138915e-05,1350.8462026319703,45352.571745678535,4776,0.0680555744324837,0.06823157082128892,4835.199755373755
