,x_(nm),baseline_dark,baseline_light,baseline_mirror,baseline_calibration,baseline_dark_smoothed,baseline_light_smoothed,raw_signal,calibrated_signal,calibrated_signal_smoothed,raw_signal_smoothed
0,186.23,1287,1314,0.3621226043733797,0.013411948310125174,1279.3853553032225,4198.504431606545,1314,0.3621226043733797,,1423.5670464283112
1,186.775442325,1280,1301,1.18800459154587,0.05657164721647,1283.5257292467043,3205.86842223424,1302,1.24457623876234,,1379.1610227319434
2,187.3207793,1292,1302,1.908567993433533,0.19085679934335328,1287.449719510444,2337.2499989190965,1283,-1.7177111940901795,,1340.5903579299802
3,187.86601092499998,1300,1307,1.7279185264672412,0.24684550378103445,1291.16215426664,1588.4149117863535,1278,-5.430601083182758,,1307.658999248788
4,188.41113719999998,1292,1304,1.043047789334166,0.08692064911118051,1294.6678616874894,955.1289109612517,1285,-0.6084445437782636,,1280.1708939147336
5,188.956158125,1294,1296,0.840365554154959,0.4201827770774795,1297.9716699451903,433.15774656902977,1290,-1.680731108309918,,1257.929989154184
6,189.50107369999998,1296,1292,0.8202728553565946,-0.20506821383914864,1301.0784072119404,18.26716873492751,1290,1.2304092830348918,,1240.7402321935058
7,190.045883925,1301,1311,0.837733819880384,0.0837733819880384,1303.9929016599374,-293.7770724158154,1304,0.25132014596411517,,1228.4055702590658
8,190.59058879999998,1304,1318,0.8116271105193998,0.05797336503709999,1306.7199814613791,-507.2092267579592,1304,0.0,,1220.729950577231
9,191.135188325,1308,1316,0.8262856362484797,0.10328570453105997,1309.2644747884633,-626.2635441662642,1314,0.6197142271863598,,1217.5173203743675
10,191.67968249999998,1315,1325,0.8012221689422371,0.0801222168942237,1311.6312098133876,-655.1742745154934,1325,0.8012221689422371,,1218.5716268768429
11,192.22407132499998,1318,1329,0.7775424502505143,0.07068567729550129,1313.8250147083502,-598.1756676804025,1318,0.0,,1223.696817311023
12,192.7683548,1307,1323,0.7753865851703869,0.048461661573149184,1315.8507176455482,-459.5019735357564,1306,-0.048461661573149184,,1232.6968389032756
13,193.312532925,1300,1309,0.7956261498651602,0.08840290554057335,1317.71314679718,-243.3874419563126,1298,-0.1768058110811467,,1245.375638879967
14,193.8566057,1311,1306,0.7908861747409445,-0.1581772349481889,1319.4171303354428,45.933677183165855,1308,0.47453170484456664,,1261.5371644674638
15,194.400573125,1316,1316,0.7942231778648126,inf,1320.9674964325347,404.22713400792327,1330,inf,,1280.9853628921326
16,194.9444352,1317,1325,0.7947581770897779,0.09934477213622224,1322.3690732606535,827.2586786431948,1339,2.185584986996889,,1303.5241813803405
17,195.488191925,1326,1335,0.7914877943554887,0.08794308826172097,1323.6266889919968,1310.7940612142202,1343,1.4950325004492564,,1328.9575671584544
18,196.0318433,1340,1352,0.7911116722494277,0.0659259726874523,1324.7451717987626,1850.5990318462414,1356,1.0548155629992368,,1357.0894674528408
19,196.575389325,1338,1347,0.7900325230816138,0.08778139145351264,1325.7293498531483,2442.4393406644976,1346,0.7022511316281012,,1387.7238294898666
20,197.11883,1327,1331,0.798472358442206,0.1996180896105515,1326.584051327352,3082.0807377942238,1336,1.7965628064949635,,1420.6646004958984
21,197.662165325,1320,1339,0.7981102791346143,0.0420058041649797,1327.3141043935711,3765.288973360669,1336,0.6720928666396752,,1455.7157276973032
22,198.2053953,1328,1349,0.8040599544843242,0.0382885692611583,1327.9243372240037,4487.829797489063,1339,0.42117426187274126,,1492.6811583204474
23,198.74851992499998,1331,1344,0.8074165803696804,0.06210896772074465,1328.4195779908473,5245.468960304652,1336,0.3105448386037233,,1531.3648395916982
24,199.2915392,1341,1341,0.8060625325032217,inf,1328.8046548662999,6033.972211932667,1334,-inf,,1571.5707187374219
25,199.83445312499998,1363,1367,0.8122546130835153,0.20306365327087883,1329.0843960225345,6849.1053024982275,1346,-3.45208210560494,,1613.1027429839553
26,200.3772617,1356,2379,0.8144257223941842,0.000796115075654139,1329.675643842417,7574.871911028417,1407,0.04060186885836109,,1650.9120704885415
27,200.919964925,1325,6528,0.8150182986479615,0.0001566439167111208,1329.5886203537766,8316.15006002385,1614,0.04527009192951391,,1688.7538109583134
28,201.4625628,1308,11374,0.8232603193402961,8.178624273199842e-05,1329.3033817300252,9075.17850913933,1845,0.04391921234708315,,1726.6028449115163
29,202.005055325,1311,13436,0.8194894939197722,6.758676238513586e-05,1329.2522593942986,9852.939069967422,1953,0.04339070145125722,,1765.9438492377747
30,202.5474425,1309,14344,0.8269202298982968,6.343845261973891e-05,1329.1258692155852,10645.37618066074,2003,0.044026286118098806,,1806.3474144374386
31,203.089724325,1316,15017,0.8298864771900701,6.057123401139115e-05,1328.659244829982,11450.810686538545,2028,0.0431267186161105,,1847.2962014994323
32,203.63190079999998,1327,15704,0.8293789756785952,5.768790259988838e-05,1327.8498493736863,12270.90593218396,2048,0.04159297777451952,,1888.842986251068
33,204.173971925,1335,16255,0.8303112569560028,5.5650888535925125e-05,1327.3082289519327,13102.187478764841,2077,0.041292959293656444,,1931.8816960746194
34,204.71593769999998,1341,16639,0.832804584655424,5.443878838118865e-05,1326.8453419103234,13935.05581100338,2109,0.041808989476752885,,1975.6337402885308
35,205.257798125,1331,16954,0.8371769300637781,5.35861825554489e-05,1326.5154816643383,14764.688599968007,2130,0.04281535986180367,-inf,2019.536501392971
36,205.7995532,1332,17387,0.8381556767340916,5.220527416593532e-05,1326.30639425579,15587.72221341337,2150,0.042703914267735094,-inf,2063.164737593111
37,206.34120292499998,1335,18019,0.840625124319978,5.038510694797279e-05,1325.9676776370675,16405.925796733478,2193,0.04323042176136065,-inf,2106.4652427008136
38,206.88274729999998,1321,18686,0.8415937915656597,4.8464946246222845e-05,1325.015583591902,17214.141815216324,2220,0.04356998667535434,-inf,2149.0764003714285
39,207.424186325,1319,19045,0.8431564976534377,4.756608922788208e-05,1323.774740084688,18001.053296790073,2223,0.0429997446620054,-inf,2190.408865432924
40,207.96552,1323,19353,0.844165982526256,4.682007667921553e-05,1323.105189245484,18767.449206097175,2242,0.04302765046819907,-inf,2231.105800810847
41,208.506748325,1319,19697,0.8476484869242688,4.6122999614989047e-05,1322.356225509046,19515.24614374014,2263,0.04354011163654966,-inf,2271.8572787605176
42,209.0478713,1326,20144,0.8491768105118729,4.512577375448363e-05,1321.3249224217734,20240.963872341003,2294,0.04368174899434015,-inf,2312.6619628983226
43,209.588888925,1324,20766,0.8502736512177026,4.373385717609827e-05,1320.7069242791201,20939.517248408396,2336,0.04425866346221145,-inf,2352.8457949216972
44,210.12980119999997,1313,21227,0.8513731200582484,4.27524917172968e-05,1320.8822396883027,21606.704523318353,2369,0.045146631253465415,inf,2392.63326462656
45,210.670608125,1305,21702,0.8534308197221572,4.184099719184964e-05,1321.4375410541322,22229.17563251673,2404,0.04598325591384276,inf,2430.6362771523236
46,211.2113097,1312,22131,0.8557212941711507,4.1102900916045474e-05,1321.9725928106839,22806.002423610516,2422,0.04562422001681048,inf,2466.209789576161
47,211.751905925,1315,22358,0.8575135521308375,4.075053709693663e-05,1322.0097170943595,23332.69161249361,2445,0.04604810691953839,inf,2499.0688803822936
48,212.29239679999998,1324,22706,0.8580327959771828,4.0128743615058594e-05,1321.818274479578,23797.506217580918,2480,0.046388827619007734,inf,2529.386373417243
49,212.83278232499998,1329,23164,0.8587529108532552,3.932919216181613e-05,1321.7901424720578,24206.638859316845,2486,0.045503875331221265,inf,2557.19563297012
50,213.37306249999997,1320,23626,0.8598387128136875,3.8547418309588786e-05,1322.1864368388615,24560.943803936196,2511,0.045909975206720244,0.13957780641912543,2582.1260051189793
51,213.91323732499998,1309,24204,0.8611437003932625,3.761274079027135e-05,1322.8286484404828,24851.778115019115,2565,0.04724160243258081,0.0467566351745032,2603.826473985771
52,214.45330679999998,1317,24922,0.8624756676121401,3.6537838068720195e-05,1323.2376950780058,25112.119980067022,2627,0.04786456787002345,0.04696136859617449,2624.629346078004
53,214.993270925,1330,25525,0.8630074298534857,3.566883363725917e-05,1322.718725225914,25447.672359509354,2681,0.048188594243937136,0.04729558001541859,2649.0879974630852
54,215.5331297,1327,26021,0.8629495266956824,3.494571663949471e-05,1321.649120025343,25897.442025866454,2692,0.047700903212910276,0.04759953018445938,2679.2932116242214
55,216.07288312499998,1317,26558,0.8648478670709356,3.426361344918726e-05,1321.06394255813,26389.394459670155,2723,0.04817464050955729,0.047905376224739706,2713.13850823343
56,216.61253119999998,1325,27053,0.8650803831098881,3.3624082054955226e-05,1320.8616956216194,26886.919816982878,2767,0.048485926323245436,0.048237828447488564,2748.331921447772
57,217.152073925,1335,27377,0.8652291434094919,3.32243738349394e-05,1321.3185349611292,27391.919092164644,2801,0.048706932042021166,0.04852971151235509,2783.7320890619862
58,217.69151129999997,1328,27707,0.8680312398394996,3.290614654988815e-05,1322.0823121701255,27910.840539989047,2813,0.048865627626583905,0.048755557472430384,2819.0773063942024
59,218.230843325,1325,28234,0.868212549145114,3.226476454513783e-05,1322.9317311830137,28444.639153774173,2830,0.048558470640432436,0.048960069101651064,2855.320460259521
60,218.77006999999998,1321,28818,0.868144571802742,3.157233777512972e-05,1323.8876984755914,28985.710752224863,2871,0.048937123551451064,0.049172739362197834,2892.7830754942934
61,219.30919132499997,1321,29434,0.8681762475955156,3.0881664980454434e-05,1324.6387460644382,29524.99768964133,2927,0.04959595395860982,0.04940300011146724,2930.540284038087
62,219.84820729999998,1327,29874,0.868951283960652,3.0439320557699655e-05,1325.7577295068718,30064.914403496674,2964,0.04982916775295434,0.04961433626099056,2968.498788194466
63,220.38711792499998,1336,30349,0.8691522224557424,2.99573371404454e-05,1327.453690910301,30616.515504314346,3001,0.04987896633884159,0.04981160645777032,3007.138734739121
64,220.9259232,1337,31094,0.8692686507714266,2.9212240843210895e-05,1328.788919341296,31188.590681555048,3056,0.050215842009479525,0.04999735304231543,3046.4006659266897
65,221.464623125,1326,31728,0.8701622824311823,2.862187627232361e-05,1330.0006795170643,31770.26084395962,3104,0.05088969601219138,0.050158451760903326,3086.024122856631
66,222.0032177,1332,32184,0.86932404321908,2.8177234643429274e-05,1330.9726607623927,32353.37214885893,3138,0.05088808576603327,0.050313389480282016,3125.9400212914747
67,222.54170692499997,1343,32608,0.8705973257298546,2.7845748464092582e-05,1331.6311581236012,32932.11961765775,3153,0.050400804720007575,0.050462943304570775,3165.305624136386
68,223.0800908,1340,33052,0.8704844215444587,2.7449685341336363e-05,1332.6065596049486,33508.25688010989,3177,0.0504250719720349,0.05058135621986246,3203.8961244874695
69,223.61836932499997,1330,33491,0.8703398065724872,2.706196345177349e-05,1333.3565199664515,34087.269473826615,3194,0.05044349987410579,0.050692899912060906,3242.302815465747
70,224.1565425,1317,34230,0.8697053263836744,2.642437111122275e-05,1333.8221250764202,34665.64103377133,3226,0.05044412445132423,0.05081704005808055,3280.9110059117356
71,224.69461032499999,1305,34870,0.8700422735223692,2.592111644636881e-05,1333.9934539853423,35243.17325420667,3271,0.050960914933561086,0.05094491953544883,3319.235475322141
72,225.23257279999999,1311,35558,0.8700397124616915,2.5404844583808553e-05,1333.9780515979721,35816.17835058483,3330,0.05129238121470947,0.051050099022961565,3356.672563364904
73,225.77042992499997,1325,36549,0.8700678242154535,2.4700994328169813e-05,1334.4348682869118,36376.28397019115,3382,0.05080994533304531,0.05114961003308412,3393.7090081314896
74,226.30818169999998,1323,37207,0.8699872642519537,2.4244433849402344e-05,1335.2721239438915,36923.720129560556,3420,0.050840577782196715,0.051242052818012834,3430.2922603002803
75,226.84582812499997,1320,37672,0.8700242014773532,2.393332420437261e-05,1336.1850325035418,37466.799542457775,3463,0.0512891137699705,0.0512942757041359,3465.8781625857223
76,227.3833692,1340,38288,0.8696880407569096,2.353816284391333e-05,1336.5631384629069,38001.988267004184,3527,0.05147796213963845,0.05134238575877185,3500.535776574713
77,227.92080492499997,1352,38691,0.87010037851645,2.3302723118360158e-05,1336.2740718928826,38523.91068880309,3561,0.05147571536845759,0.05142543680565983,3535.01952479098
78,228.45813529999998,1362,38941,0.8693067287349536,2.313277971034231e-05,1336.420983487709,39037.47142630562,3604,0.05186369211058746,0.05150919007928229,3569.3037214885276
79,228.99536032499998,1370,39253,0.8691277262341458,2.2942420775391226e-05,1337.177852272959,39534.36913633301,3635,0.05196458305626113,0.051580836490501686,3602.6546920654364
80,229.53248,1361,39763,0.86926662631248,2.2635972769972395e-05,1337.6936057441587,40005.64848580865,3637,0.05151947402445717,0.05162286756993008,3633.4329882895854
81,230.069494325,1348,40577,0.8686441253792921,2.2142907680014584e-05,1337.630161498536,40462.44343020149,3664,0.05128297418691378,0.05167125626623958,3663.1659833744116
82,230.60640329999998,1332,41184,0.868302707705708,2.1788183973344075e-05,1337.545357765722,40895.024258759324,3706,0.05172514875271884,0.05172376928018464,3691.6557566422093
83,231.143206925,1332,41621,0.8687016218294412,2.1561756852476886e-05,1337.875852227658,41284.98643230798,3752,0.052179451582994064,0.05177277593828224,3717.897528822779
84,231.67990519999998,1339,41880,0.8683284847277679,2.1418526546650747e-05,1337.9676776370668,41632.396384968284,3773,0.05213269361454792,0.05182469718942475,3741.572719653828
85,232.216498125,1346,42179,0.8683608504247778,2.1266153611656695e-05,1337.6967315227723,41952.055992207395,3782,0.05180435019799571,0.05186139562526251,3762.829101451829
86,232.75298569999998,1348,42665,0.868249886800152,2.1014349705935863e-05,1337.1100364673914,42249.499286506245,3807,0.05167428592689629,0.05190086385659601,3782.678520464717
87,233.289367925,1340,43159,0.867778574191436,2.075082077982343e-05,1336.4769983464828,42516.81825182822,3830,0.05166954374176034,0.051963293879850096,3801.7026433214064
88,233.8256448,1325,43462,0.8676471171202086,2.0591098491117273e-05,1336.4987655439277,42742.331808194154,3858,0.05215725247800005,0.05202582068977722,3818.815194002056
89,234.36181632499998,1322,43464,0.8677489292852631,2.0591071360762734e-05,1336.910484948671,42922.15334435579,3870,0.05246604982722344,0.052079178321180315,3833.1265713831967
90,234.89788249999998,1321,43434,0.8672589311593729,2.0593615538179967e-05,1337.0154250379142,43077.41230831873,3857,0.0522254090048244,0.05214543636487627,3846.289904641028
91,235.433843325,1331,43512,0.8668004592010585,2.0549547407625674e-05,1336.5698883326659,43214.02930983631,3850,0.05176430991980907,0.05224070747172559,3858.9765566603255
92,235.9696988,1337,43730,0.8665578153052318,2.0441059026377745e-05,1336.046252463224,43317.09893768746,3866,0.05169543827770932,0.052337084529506056,3869.7179324559265
93,236.505448925,1333,43925,0.8666098942893835,2.0346776255855173e-05,1335.82346146003,43381.036852476005,3897,0.05216913432001266,0.05240376122466552,3877.0515753470454
94,237.04109369999998,1339,44064,0.8664654382940954,2.0280057069493163e-05,1335.746109764635,43412.531382363435,3919,0.05232254723929236,0.05244812176935121,3881.5556637748696
95,237.576633125,1337,44106,0.8658853313998153,2.02456295774934e-05,1335.3592833359503,43408.24809168867,3916,0.05221347868035548,0.05248853958996114,3883.5094113116197
96,238.11206719999998,1336,44087,0.8659634438688039,2.0255981003223406e-05,1334.5212349090323,43371.76574780774,3927,0.052483246779351844,0.05253127893419611,3883.2731658700477
97,238.64739592499998,1347,44059,0.8653764850454776,2.0260734338019235e-05,1333.3587397222784,43311.85440213738,3937,0.05247530193546982,0.052593561085518756,3882.0059344491774
98,239.1826193,1332,44000,0.865240351462597,2.0278437036247237e-05,1332.3322159052045,43242.99938843379,3928,0.052642822546097826,0.05266991111545745,3881.042311264054
99,239.71773732499997,1325,43932,0.8654717432609225,2.031290030419702e-05,1331.5563206414386,43184.65566603917,3926,0.052833853691216445,0.05273009270419497,3880.439466352505
100,240.25275,1325,43566,0.8654328986505,2.0487983207085533e-05,1330.9836689392484,43126.96165258474,3904,0.052838508691073593,0.05278416254930541,3879.7225758227078
101,240.787657325,1332,43184,0.8649750843904328,2.066747310499935e-05,1330.6418718430514,43063.72060522239,3887,0.05280539378327334,0.052842249864347685,3878.9261364922586
102,241.3224593,1341,42996,0.8650023747478218,2.076587143795035e-05,1330.5586763006834,43010.45498199197,3867,0.05245459125226258,0.052915091164399145,3879.7143310153506
103,241.85715592499997,1331,42719,0.864426750181391,2.088592708469583e-05,1330.4249926385396,42961.234977008855,3854,0.05269519403468758,0.05299393043280265,3881.0418809032303
104,242.3917472,1320,42558,0.8640504083213235,2.0952771917195876e-05,1330.4449477904116,42906.96799474424,3859,0.05319908789776033,0.05308039724213288,3882.6048155110357
105,242.92623312499998,1322,42554,0.8638615542876957,2.095124064531664e-05,1331.0539310063396,42855.52950236616,3876,0.053509468608138704,0.05316944592508886,3885.1000702166916
106,243.46061369999998,1328,42148,0.8647030136247108,2.1183317335245243e-05,1331.9245283018615,42822.87422138585,3856,0.053551426223499975,0.053241266540538616,3888.1879317764096
107,243.994888925,1334,41952,0.863747888775786,2.126515064197612e-05,1332.3461460055464,42812.134770888675,3852,0.05354564931649587,0.053309709399990475,3892.1373304037847
108,244.52905879999997,1329,42177,0.8628771528607923,2.1124097945084026e-05,1332.462320777342,42815.58637794658,3873,0.05373970517229376,0.053385746050751595,3897.081474098999
109,245.063123325,1329,42400,0.8633129275796555,2.1020012358590136e-05,1333.2203220910753,42837.93157262823,3882,0.053664091551480615,0.053459577108434894,3903.471063897183
110,245.59708249999997,1337,42302,0.8623491049005171,2.1050875256939266e-05,1334.3516953951137,42886.54855149525,3887,0.05367973190519513,0.05352046318667416,3911.084305420206
111,246.130936325,1343,42039,0.862505803534046,2.1193871720415916e-05,1335.405649052048,42972.67002650034,3879,0.053747658682974764,0.05357435335065878,3920.6976601960782
112,246.66468479999997,1344,42069,0.8631762817630669,2.1195243259989364e-05,1336.5594011189123,43103.260119141174,3866,0.05345440350169318,0.05362511170560235,3933.0468866791243
113,247.19832792499997,1326,42356,0.8629529675416884,2.103224390791344e-05,1337.7208317288919,43280.827357357215,3872,0.053548092989547616,0.05366454788733294,3947.7284196696787
114,247.7318657,1319,42883,0.8621360146885437,2.0742373560979302e-05,1338.1782146820733,43499.17001517505,3913,0.05380571701718031,0.0537200071383863,3965.1221998232495
115,248.265298125,1329,43056,0.8624878814902607,2.0669779315317677e-05,1338.3827719766894,43748.26618949382,3923,0.053617407543934056,0.05378431277972371,3984.6721330040687
116,248.79862519999998,1336,42969,0.862427427307537,2.0714995972126365e-05,1338.8791365602588,44020.41867312879,3906,0.05323753964836476,0.05382970770975945,4004.9091032638707
117,249.33184692499998,1345,43248,0.8621956715984717,2.0575989108141937e-05,1339.7748986386753,44307.289134520885,3927,0.05312720387722248,0.053844816662776754,4024.880744750654
118,249.8649633,1349,43763,0.8614594306460737,2.031073302791705e-05,1340.9002695417532,44627.84418673044,3985,0.053539092261589344,0.053843039884557506,4046.2053953656164
119,250.397974325,1345,44160,0.861591555373828,2.01235911566934e-05,1341.6690525266454,44989.60424924601,4041,0.05425320175844541,0.053842881154542756,4069.667557588995
120,250.93087999999997,1348,44764,0.861950076569216,1.98532816604297e-05,1342.2214093184186,45390.16061518861,4088,0.05439799174957738,0.05384687074720877,4095.5467394504185
