,x_(nm),baseline_dark,baseline_light,baseline_mirror,baseline_calibration,baseline_dark_smoothed,baseline_light_smoothed,raw_signal,calibrated_signal,calibrated_signal_smoothed,raw_signal_smoothed
0,186.23,1020,1016,0.3621226043733797,-0.09053065109334492,993.593917489588,3735.7858062109067,1037,-1.5390210685868637,,1164.1531916104616
1,186.775442325,1018,1007,1.18800459154587,-0.1080004174132609,1001.0941536943748,2802.8081953891215,1028,-1.080004174132609,,1116.7797945302943
2,187.3207793,1014,1007,1.908567993433533,-0.2726525704905047,1008.1259365090973,1986.6223306610327,1024,-2.726525704905047,,1075.7200026019118
3,187.86601092499998,1010,1013,1.7279185264672412,0.5759728421557471,1014.7026690986015,1283.2447396988287,1020,5.759728421557471,,1040.7556063063835
4,188.41113719999998,1012,1018,1.043047789334166,0.17384129822236102,1020.8377546277335,688.691950174697,1017,0.8692064911118051,,1011.6683961247783
5,188.956158125,1003,1015,0.840365554154959,0.07003046284624657,1026.5445962613392,198.980489760826,1020,1.1905178683861917,,988.2401625381651
6,189.50107369999998,1005,1013,0.8202728553565946,0.10253410691957432,1031.8365971642645,-189.87311387059663,1022,1.7430798176327635,,970.2526960276132
7,190.045883925,1025,1030,0.837733819880384,0.1675467639760768,1036.7271605013555,-481.8523330473822,1030,0.837733819880384,,957.4877870741914
8,190.59058879999998,1040,1042,0.8116271105193998,0.4058135552596999,1041.2296894374583,-680.9406400973426,1041,0.4058135552596999,,949.727226158969
9,191.135188325,1045,1055,0.8262856362484797,0.08262856362484797,1045.357587137419,-791.1215073482913,1048,0.2478856908745439,,946.752803763015
10,191.67968249999998,1046,1069,0.8012221689422371,0.03483574647574944,1049.1242567660831,-816.3784071280384,1065,0.6618791830392394,,948.3463103673984
11,192.22407132499998,1045,1058,0.7775424502505143,0.059810957711578024,1052.543101488297,-760.6948117643974,1072,1.6148958582126067,,954.2895364531882
12,192.7683548,1047,1043,0.7753865851703869,-0.19384664629259674,1055.6275244689068,-628.0541935851784,1051,-0.7753865851703869,,964.3642725014537
13,193.312532925,1048,1031,0.7956261498651602,-0.04680153822736237,1058.3909288727584,-422.440024918194,1039,0.42121384404626133,,978.3523089932638
14,193.8566057,1055,1042,0.7908861747409445,-0.06083739805699573,1060.8467178646977,-147.83577809125836,1060,-0.30418699028497864,,996.0354364096877
15,194.400573125,1057,1057,0.7942231778648126,inf,1063.0082946095708,191.7750745678204,1073,inf,,1017.1954452317941
16,194.9444352,1072,1060,0.7947581770897779,-0.06622984809081482,1064.8890622722236,592.4090607312269,1074,-0.13245969618162964,,1041.6141259406522
17,195.488191925,1091,1075,0.7914877943554887,-0.04946798714721804,1066.5024240175023,1050.0827080711506,1074,0.8409557815027067,,1069.0732690173315
18,196.0318433,1098,1087,0.7911116722494277,-0.07191924293176616,1067.8617830102528,1560.8125442597798,1081,1.2226271298400246,,1099.3546649429006
19,196.575389325,1089,1086,0.7900325230816138,-0.2633441743605379,1068.980542415321,2120.6150969693026,1079,2.6334417436053794,,1132.2401041984285
20,197.11883,1066,1069,0.798472358442206,0.26615745281406866,1069.872105397553,2725.5068938719073,1063,-0.798472358442206,,1167.5113772649845
21,197.662165325,1069,1060,0.7981102791346143,-0.08867891990384603,1070.549875121795,3371.5044626397794,1068,0.08867891990384603,,1204.950274623638
22,198.2053953,1085,1064,0.8040599544843242,-0.0382885692611583,1071.0272547528925,4054.6243309451083,1073,0.4594628311338996,,1244.3385867554573
23,198.74851992499998,1084,1067,0.8074165803696804,-0.047495092962922376,1071.3176474556922,4770.883026460089,1063,0.9973969522213699,,1285.458104141512
24,199.2915392,1080,1081,0.8060625325032217,0.8060625325032217,1071.4344563950394,5516.297076856896,1064,-12.897000520051547,,1328.0906172628709
25,199.83445312499998,1094,1101,0.8122546130835153,0.11603637329764505,1071.3910847357604,6286.883009807576,1097,0.34810911989293514,inf,1372.0179166005762
26,200.3772617,1091,2057,0.8144257223941842,0.0008430908099318677,1071.522729846635,6972.643344129971,1160,0.05817326588529887,inf,1411.2953181272237
27,200.919964925,1062,6025,0.8150182986479615,0.00016421887943742928,1071.58134952092,7675.011823597215,1368,0.05025097710785336,inf,1450.5253799632783
28,201.4625628,1050,10590,0.8232603193402961,8.629563095810232e-05,1071.2738680377604,8394.75086638413,1615,0.04875703149132781,inf,1490.4514258533313
29,202.005055325,1049,12549,0.8194894939197722,7.125995599302367e-05,1070.7986590862554,9131.483159301282,1732,0.048670549943235164,inf,1531.7066071711408
30,202.5474425,1043,13417,0.8269202298982968,6.682723694022118e-05,1069.9962626559854,9881.143717864314,1782,0.04938532809882345,inf,1573.8057940156896
31,203.089724325,1051,14038,0.8298864771900701,6.390132264495804e-05,1068.1733448096015,10643.275997191127,1813,0.04869280785545803,inf,1615.8658180252924
32,203.63190079999998,1061,14669,0.8293789756785952,6.094789650783327e-05,1066.052753176722,11420.127522706978,1860,0.048697369309758785,inf,1658.2902217490455
33,204.173971925,1058,15156,0.8303112569560028,5.889567718513284e-05,1065.0296948968064,12208.686063104255,1897,0.049413473158326456,inf,1701.4115382001532
34,204.71593769999998,1063,15522,0.832804584655424,5.759766129437886e-05,1064.6339214931052,13000.659380733176,1908,0.048670023793750135,inf,1744.6389952206966
35,205.257798125,1070,15844,0.8371769300637781,5.666555638715163e-05,1064.486307730619,13788.558540397025,1910,0.047599067365207366,-inf,1788.3988312305714
36,205.7995532,1069,16261,0.8381556767340916,5.5170858131522616e-05,1064.6040000905818,14567.001766744155,1928,0.047391767134977926,-inf,1832.8046161860618
37,206.34120292499998,1074,16806,0.840625124319978,5.343409129926125e-05,1064.5879634872615,15338.595959138078,1961,0.04739603898244473,-inf,1877.1971505583003
38,206.88274729999998,1075,17408,0.8415937915656597,5.152720207957263e-05,1064.434120818118,16102.248046388057,1995,0.04740502591320682,-inf,1920.4497723617378
39,207.424186325,1063,17810,0.8431564976534377,5.0346718675191836e-05,1064.1501732768374,16847.340166254857,2010,0.047678342585406666,-inf,1961.9719132935816
40,207.96552,1059,18139,0.844165982526256,4.942423785282529e-05,1063.8262021789646,17571.133955468642,2021,0.04754611681441793,-inf,2002.8335409635167
41,208.506748325,1054,18512,0.8476484869242688,4.855358499967171e-05,1063.4140071122586,18277.803393054983,2027,0.047242638204680575,-0.13946815907945828,2043.1434913587686
42,209.0478713,1062,18904,0.8491768105118729,4.7594261322266166e-05,1063.301841491293,18964.679675643478,2053,0.04716591297036577,-0.11975684682504513,2082.540669097788
43,209.588888925,1071,19438,0.8502736512177026,4.629355100003825e-05,1063.83519445512,19625.445514054303,2092,0.047265715571039056,-0.06781697496098459,2120.861582368756
44,210.12980119999997,1061,19893,0.8513731200582484,4.520885301923579e-05,1064.8186142381276,20256.656843869234,2119,0.047830966494351465,0.002971347715845337,2158.1719178236917
45,210.670608125,1051,20347,0.8534308197221572,4.422837996072539e-05,1065.895897981814,20845.92176493199,2153,0.04873967471671938,0.12842988637685548,2193.371174885006
46,211.2113097,1036,20762,0.8557212941711507,4.3380375857809524e-05,1066.3611406826676,21389.446669233323,2185,0.04984405186062314,0.16032763739052572,2225.766200819908
47,211.751905925,1044,20989,0.8575135521308375,4.299391086141075e-05,1066.9138145824163,21883.528007428966,2199,0.04965796704492942,0.21865166927055021,2255.985503635373
48,212.29239679999998,1057,21302,0.8580327959771828,4.23824547284358e-05,1068.1431516002422,22320.152755441373,2231,0.04975700185118363,0.29179138076547884,2283.4624793313114
49,212.83278232499998,1064,21753,0.8587529108532552,4.150770510190223e-05,1069.3655801943216,22704.820267729294,2250,0.04922813825085604,0.38740071875193444,2307.964121497612
50,213.37306249999997,1074,22240,0.8598387128136875,4.0623580875634865e-05,1070.2669143128744,23037.909035311794,2269,0.04854517914638366,0.041018024463162446,2330.0851208407444
51,213.91323732499998,1078,22778,0.8611437003932625,3.968404149277707e-05,1070.9470203175404,23310.980588461352,2314,0.04904947528507246,0.04912130365766823,2349.5566150988248
52,214.45330679999998,1075,23396,0.8624756676121401,3.863965179033825e-05,1071.5945095018935,23556.12294729167,2375,0.05023154732743972,0.04956794796442378,2368.3005730593673
53,214.993270925,1079,23938,0.8630074298534857,3.775350758359883e-05,1070.857233459401,23875.174749144484,2414,0.050400932624104444,0.04982578660064786,2390.7838909148104
54,215.5331297,1075,24424,0.8629495266956824,3.695873599279123e-05,1069.3421142041516,24302.561394368604,2425,0.04989429359026816,0.05005328537412598,2419.109062492876
55,216.07288312499998,1082,24969,0.8648478670709356,3.6205796754340676e-05,1068.6796982943918,24770.16987927199,2445,0.04934850097616634,0.05029463181812649,2451.4839067702083
56,216.61253119999998,1103,25437,0.8650803831098881,3.555027464082716e-05,1068.612494054205,25245.989218328355,2497,0.04955708284931306,0.050574250920891795,2485.7777299598606
57,217.152073925,1112,25715,0.8652291434094919,3.5167627663678896e-05,1069.5157761217488,25729.133434505384,2532,0.04993803128242403,0.05083372210186055,2521.09923214564
58,217.69151129999997,1092,25979,0.8680312398394996,3.487890223166712e-05,1070.4029309836938,26223.16102289922,2557,0.051097591769392325,0.05109526068890689,2557.3525787673066
59,218.230843325,1083,26397,0.868212549145114,3.4297722570321326e-05,1070.841287458359,26731.30643955644,2602,0.05209824058431809,0.05138240758593256,2594.6965729687604
60,218.77006999999998,1077,26975,0.868144571802742,3.3521683983425053e-05,1071.5564338942918,27247.429500101407,2625,0.05189156680634198,0.05165594113697241,2632.888944256898
61,219.30919132499997,1065,27664,0.8681762475955156,3.2639431843133786e-05,1072.369611995721,27763.717366191224,2649,0.05170086003952392,0.05190203530187704,2670.984914720554
62,219.84820729999998,1063,28151,0.868951283960652,3.207882767131763e-05,1073.268341298763,28283.077283743147,2681,0.05190354317219193,0.05213779086678982,2709.3941878637725
63,220.38711792499998,1064,28547,0.8691522224557424,3.162508541482889e-05,1074.5011891548868,28813.473351604243,2716,0.05224464110529733,0.05236697267809095,2748.86384742571
64,220.9259232,1064,29194,0.8692686507714266,3.0901836145447085e-05,1075.746041812931,29361.11984416352,2773,0.05281123797256907,0.052591887461207104,2789.674375410488
65,221.464623125,1068,29870,0.8701622824311823,3.0211870093437342e-05,1076.7526784298418,29919.19785272542,2825,0.05308225575416941,0.052816388096086506,2831.106661532483
66,222.0032177,1070,30298,0.86932404321908,2.974285080125496e-05,1077.6004892522842,30480.715803301868,2864,0.053358674337451395,0.05302538474133294,2872.467122698081
67,222.54170692499997,1074,30659,0.8705973257298546,2.942698413824082e-05,1078.2201408865226,31041.788692835027,2898,0.053674819068151254,0.053225937411810184,2913.8725905455963
68,223.0800908,1074,31099,0.8704844215444587,2.899198739531919e-05,1079.122811388686,31601.868989104467,2929,0.0537801366183171,0.053416586340241066,2955.6649980746447
69,223.61836932499997,1071,31508,0.8703398065724872,2.859479602367143e-05,1080.1606831411602,32161.772203220295,2957,0.053929785300644316,0.053593703413020125,2997.435049491437
70,224.1565425,1063,32199,0.8697053263836744,2.79324680878621e-05,1080.7990214953697,32721.296926317067,3007,0.054300717962803925,0.05377344900383305,3039.0530249835197
71,224.69461032499999,1061,32898,0.8700422735223692,2.7328023165573677e-05,1080.8415592651947,33279.09828082113,3060,0.05462871830798178,0.05397430955414938,3080.8271988039905
72,225.23257279999999,1059,33623,0.8700397124616915,2.671783910028533e-05,1079.9823099050734,33831.08634397091,3106,0.05469141663828407,0.05421390604531457,3122.720967632276
73,225.77042992499997,1051,34543,0.8700678242154535,2.5978377648855053e-05,1079.2114204172028,34370.871186209675,3167,0.05497024710497729,0.05444255632083242,3163.8999750843127
74,226.30818169999998,1050,35171,0.8699872642519537,2.5497120959290574e-05,1078.5545765475797,34898.890597747864,3215,0.055201266876864094,0.05466486515349518,3204.5322204352824
75,226.84582812499997,1057,35645,0.8700242014773532,2.5153932042250292e-05,1077.7467213300208,35422.63016149789,3244,0.05501164937640139,0.0548602064989908,3244.323835194393
76,227.3833692,1083,36255,0.8696880407569096,2.472671559072301e-05,1077.0537951029262,35938.050533420224,3310,0.055066395620540144,0.055036768867399694,3283.731930507989
77,227.92080492499997,1090,36637,0.87010037851645,2.4477463035318028e-05,1076.5574758204964,36439.3765883705,3343,0.05514772421857152,0.055229066695668516,3323.3032684771388
78,228.45813529999998,1117,36857,0.8693067287349536,2.4323075790009896e-05,1076.179800221955,36930.57394278395,3387,0.05521338204332246,0.05543582006641712,3362.6371605245226
79,228.99536032499998,1141,37157,0.8691277262341458,2.413171163466642e-05,1076.227955333056,37406.76235022239,3437,0.0554064099131941,0.055628032910284106,3400.9971460281567
80,229.53248,1119,37672,0.86926662631248,2.3780992704086667e-05,1076.3247865183603,37856.98450700962,3445,0.05531458902970559,0.0558047486326289,3437.665020725205
81,230.069494325,1095,38384,0.8686441253792921,2.3294916071208457e-05,1076.4146413282087,38290.486398332185,3464,0.05518565617269283,0.05594976922250939,3472.560624249633
82,230.60640329999998,1067,38959,0.868302707705708,2.291519866213734e-05,1077.104373824981,38699.10756755459,3494,0.05561518715300732,0.05608333568935987,3506.1581236267425
83,231.143206925,1074,39460,0.8687016218294412,2.263068884044811e-05,1077.9862058030553,39061.84593082441,3546,0.05594306281358773,0.056234893081356804,3537.879929330155
84,231.67990519999998,1085,39699,0.8683284847277679,2.2487400547153053e-05,1078.0136356429157,39381.10729574774,3587,0.056263476168976936,0.05642062119427021,3567.2202314887536
85,232.216498125,1080,39970,0.8683608504247778,2.232864104975001e-05,1077.8133366553961,39671.71337969074,3608,0.05644680457376802,0.05662671687457949,3595.157285555663
86,232.75298569999998,1084,40411,0.868249886800152,2.207770454904142e-05,1078.1224263290017,39938.5463090889,3646,0.056563079054644125,0.056814925484471854,3621.6187682619525
87,233.289367925,1081,40815,0.867778574191436,2.1839698348805455e-05,1078.5698430315315,40175.581100363896,3682,0.05680505540524299,0.05698561226877603,3645.8236879656824
88,233.8256448,1075,41045,0.8676471171202086,2.1707458521896637e-05,1078.9561937982533,40368.85705225409,3705,0.057090615912588155,0.0571622583018379,3667.3773131893563
89,234.36181632499998,1076,41073,0.8677489292852631,2.1695350383410333e-05,1078.962309452062,40511.6070805673,3716,0.05727572501220328,0.057354440711625584,3685.860880201067
90,234.89788249999998,1071,41049,0.8672589311593729,2.1693404651542672e-05,1078.7953521030847,40626.357675144754,3726,0.05759598934984579,0.057560498087913546,3702.9408140614028
91,235.433843325,1069,41083,0.8668004592010585,2.1662429629656084e-05,1078.5383813902713,40723.01789394926,3748,0.05803364897784865,0.05776418554771582,3718.6591768782273
92,235.9696988,1067,41200,0.8665578153052318,2.1592151478963243e-05,1077.821853269589,40784.12833812692,3752,0.057974926721016305,0.05797965481904822,3732.182019977731
93,236.505448925,1060,41274,0.8666098942893835,2.154995509746316e-05,1076.8125212348882,40801.78853428085,3755,0.05807712898766322,0.05821123366774002,3743.1105800810174
94,237.04109369999998,1060,41401,0.8664654382940954,2.1478531476515094e-05,1075.9443248997504,40784.25418469197,3781,0.05844308414759757,0.0584247487674622,3751.086502525466
95,237.576633125,1059,41396,0.8658853313998153,2.1466279877031392e-05,1075.3760900586444,40728.06403315965,3797,0.05877467430331195,0.05863244162633518,3756.550250288723
96,238.11206719999998,1063,41355,0.8659634438688039,2.1492193087183656e-05,1074.7289859339755,40634.617386576494,3805,0.058931593445057585,0.058858219060687854,3760.1715327639768
97,238.64739592499998,1071,41331,0.8653764850454776,2.1494696598248327e-05,1074.0069084237261,40516.83315590309,3807,0.058809489892807425,0.05910035219853554,3762.6122901990257
98,239.1826193,1068,41228,0.865240351462597,2.1544829468690164e-05,1073.2901311467776,40392.691159481896,3812,0.05911901206208581,0.05933350145201638,3764.325284830841
99,239.71773732499997,1071,41068,0.8654717432609225,2.163841646275777e-05,1072.5754377222381,40279.67641396103,3823,0.059548922105509376,0.0595499431881225,3766.0793902465925
100,240.25275,1080,40660,0.8654328986505,2.1865409263529562e-05,1071.5566377494188,40167.75134204548,3825,0.060020548428388644,0.05976980500879885,3767.7194047429575
101,240.787657325,1086,40296,0.8649750843904328,2.20600633611434e-05,1070.2199823325352,40051.737253391155,3801,0.05989307202550433,0.06000327940659747,3769.5624136446304
102,241.3224593,1085,40084,0.8650023747478218,2.218011679140034e-05,1069.704115608487,39948.152868693884,3774,0.059642334052075516,0.060239195096333256,3773.2054859679
103,241.85715592499997,1079,39744,0.864426750181391,2.235682788520344e-05,1069.3279122969736,39848.60250515224,3773,0.06022929432273807,0.06047256339987633,3777.2004348908654
104,242.3917472,1068,39416,0.8640504083213235,2.2531824562462802e-05,1069.3933044915875,39743.5107023934,3774,0.06097111726602434,0.06070466396325796,3781.386441368928
105,242.92623312499998,1060,39346,0.8638615542876957,2.2563379676322826e-05,1070.3805748714374,39645.560624248945,3765,0.061033942024453246,0.06093095224985541,3786.8218306189674
106,243.46061369999998,1065,38964,0.8647030136247108,2.281598495012298e-05,1071.5871480667533,39573.48173231481,3759,0.061466263455631304,0.06113717553119093,3793.366893927309
107,243.994888925,1067,38711,0.863747888775786,2.294516759047354e-05,1072.0854605993134,39526.78334730042,3766,0.06192900732668809,0.06132759810792232,3800.3486149175924
108,244.52905879999997,1075,38949,0.8628771528607923,2.2782836586069394e-05,1071.7494620489501,39497.503567463966,3776,0.06153644161897343,0.061522595844390605,3808.1202518742616
109,245.063123325,1091,39079,0.8633129275796555,2.2725937864053268e-05,1071.7443430202065,39491.09436227245,3792,0.06138275817080788,0.06171563090786789,3817.718997032702
110,245.59708249999997,1096,38814,0.8623491049005171,2.2863065509849862e-05,1072.0488799293096,39515.40107363625,3794,0.061684550745574926,0.06189800678375326,3829.2707875602346
111,246.130936325,1076,38488,0.862505803534046,2.3054255413611837e-05,1071.9472921243764,39585.41414301494,3772,0.06215427259509751,0.062081314399464266,3843.9234184239003
112,246.66468479999997,1057,38480,0.8631762817630669,2.306539512500513e-05,1071.9489003148224,39705.663661690334,3771,0.06259948236926392,0.06225392306055814,3861.7651815442414
113,247.19832792499997,1051,38806,0.8629529675416884,2.285665388800658e-05,1072.0561960633104,39875.48515255083,3790,0.06260437499925002,0.062416100266294065,3882.802260526778
114,247.7318657,1059,39361,0.8621360146885437,2.250890331284381e-05,1072.0809531359507,40089.90545652147,3830,0.0623721710798902,0.06256818227550183,3906.468730888507
115,248.265298125,1060,39490,0.8624878814902607,2.244308825111269e-05,1072.2589413123535,40341.60490611261,3841,0.06241422842634439,0.06270290373261772,3932.1221998232504
116,248.79862519999998,1063,39363,0.862427427307537,2.251768739706363e-05,1072.487847969356,40623.86090285093,3850,0.06275679477561634,0.06282176073433679,3959.221817028623
117,249.33184692499998,1079,39628,0.8621956715984717,2.236622666213058e-05,1072.52707875601,40924.85306575383,3879,0.06262543465396563,0.062928377472619,3986.940519603991
118,249.8649633,1095,40179,0.8614594306460737,2.2041229931585142e-05,1072.4592629504425,41260.05230016456,3923,0.062332598246522784,0.06302007732143904,4016.3902013634874
119,250.397974325,1094,40633,0.861591555373828,2.1790929345047373e-05,1071.7079435547598,41641.51607057837,3985,0.06299757673653196,0.06310523315583197,4048.244830007397
