,x_(nm),baseline_dark,baseline_light,baseline_dark_smoothed,baseline_light_smoothed,raw_signal,calibrated_signal,calibrated_signal_smoothed,raw_signal_smoothed
0,186.23,1388,1406,1457.6706793021997,4719.209204081593,1336,-2.888888888888889,,1327.6038589601292
1,186.775442325,1388,1400,1431.5463046757163,3570.482150570297,1329,-4.916666666666667,,1328.9798685221544
2,187.3207793,1383,1392,1409.075170038988,2567.1855211105762,1324,-6.555555555555555,,1330.5542758177287
3,187.86601092499998,1381,1386,1390.1194348566712,1704.1626279991287,1327,-10.8,,1332.315152708398
4,188.41113719999998,1382,1389,1374.541258593423,976.2567835326513,1331,-7.285714285714286,,1334.250571055708
5,188.956158125,1375,1393,1362.2028007138995,378.31130000784106,1328,-2.611111111111111,,1336.3486027212043
6,189.50107369999998,1374,1399,1352.966220682758,-94.83051027860347,1325,-1.96,,1338.597319566433
7,190.045883925,1396,1407,1346.6936779646549,-448.3253350299856,1339,-5.181818181818182,,1340.9847934529398
8,190.59058879999998,1408,1410,1343.2473320242466,-687.3298619496072,1344,-32.0,,1343.4990962422705
9,191.135188325,1400,1423,1342.4893423261904,-817.0007787407721,1352,-2.0869565217391304,,1346.1282997959706
10,191.67968249999998,1401,1437,1344.2818683351427,-842.4947731067823,1374,-0.75,,1348.860475975586
11,192.22407132499998,1388,1431,1348.4870695157601,-768.9685327509378,1366,-0.5116279069767442,,1351.6836966426629
12,192.7683548,1385,1426,1354.9671053326992,-601.578745376547,1354,-0.7560975609756098,,1354.5860336587466
13,193.312532925,1388,1415,1363.584135250617,-345.4820986869072,1358,-1.1111111111111112,,1357.5555588853829
14,193.8566057,1398,1408,1374.2003187341702,-5.835280385323131,1365,-3.3,,1360.5803441841178
15,194.400573125,1409,1422,1386.6778152480153,412.20502182490054,1370,-3.0,,1363.648461416497
16,194.9444352,1419,1431,1400.878784256809,903.4821202404655,1371,-4.0,,1366.747982444066
17,195.488191925,1435,1435,1416.6653852252077,1462.8393271580662,1375,-inf,,1369.8669791283712
18,196.0318433,1441,1434,1433.8997776178687,2085.119954874403,1387,7.714285714285714,,1372.993523330958
19,196.575389325,1428,1438,1452.4441208994485,2765.16731568617,1377,-5.1,,1376.115686913372
20,197.11883,1417,1432,1472.1605745346037,3497.8247218900688,1370,-3.1333333333333333,,1379.2215417371592
21,197.662165325,1424,1436,1492.9112979879908,4277.935485782792,1372,-4.333333333333333,,1382.2991596638653
22,198.2053953,1425,1447,1514.5584507242665,5100.342919661038,1364,-2.772727272727273,,1385.3366125550363
23,198.74851992499998,1417,1431,1536.9641922080882,5959.890335821502,1363,-3.857142857142857,,1388.3219722722179
24,199.2915392,1420,1434,1559.9906819041116,6851.4210465608885,1372,-3.4285714285714284,,1391.2433106769556
25,199.83445312499998,1436,1463,1583.5000792769636,7769.778364175711,1400,-1.3333333333333333,-inf,1394.088699630769
26,200.3772617,1457,2642,1604.1288364402058,8573.27101406584,1402,-0.046413502109704644,-inf,1396.3547758725863
27,200.919964925,1575,7413,1624.887585222737,9392.75211216544,1386,-0.03237410071942446,-inf,1398.28018754669
28,201.4625628,1718,13079,1645.4683231782963,10228.706856327239,1390,-0.028870698001936448,-inf,1399.7496885546402
29,202.005055325,1782,15402,1666.2060522321817,11078.422206618287,1409,-0.02738619676945668,-inf,1401.4660128201956
30,202.5474425,1817,16410,1687.0366033205414,11939.125461505128,1415,-0.027547454258891248,-inf,1403.7491902421075
31,203.089724325,1828,17114,1707.58855240206,12808.347437087798,1413,-0.02714902525186445,-inf,1405.3445831162385
32,203.63190079999998,1830,17801,1727.8425105891083,13687.529796824128,1424,-0.02542107569970572,-inf,1406.2293823189382
33,204.173971925,1843,18340,1748.3749575301485,14574.862896101558,1427,-0.0252167060677699,-inf,1407.4988787967748
34,204.71593769999998,1857,18690,1769.10691068877,15458.815080748984,1417,-0.02613913146794986,-inf,1408.8922738906615
35,205.257798125,1862,18926,1789.161317357097,16331.259462275164,1417,-0.026078293483356774,-inf,1410.1949987541914
36,205.7995532,1862,19287,1808.5439307798244,17188.330766268442,1423,-0.025193687230989956,-inf,1411.8168021925483
37,206.34120292499998,1876,19896,1827.2863938027695,18031.512333234834,1427,-0.024916759156492784,inf,1413.513873473891
38,206.88274729999998,1892,20584,1845.249813132765,18857.827266755397,1428,-0.02482345388401455,inf,1414.845409862031
39,207.424186325,1884,20918,1861.7845930824803,19656.493374707996,1423,-0.024219817169276032,inf,1416.0610206346419
40,207.96552,1876,21113,1877.4074610976104,20426.03676187417,1417,-0.023860269272755627,inf,1417.382839928397
41,208.506748325,1879,21434,1892.3909261817575,21169.359419238986,1419,-0.023523395551009973,inf,1418.7606514303563
42,209.0478713,1894,21828,1906.440349724759,21881.721669799575,1416,-0.023979131132738037,inf,1420.149357856323
43,209.588888925,1904,22305,1919.4966816915075,22556.62078416229,1414,-0.024018430469094652,-0.029390554952047083,1421.2388502570568
44,210.12980119999997,1913,22719,1931.5428209019087,23192.153434958447,1413,-0.024031529366528886,0.2954192169463124,1422.510883598695
45,210.670608125,1930,23161,1941.7817391107014,23773.419647103667,1408,-0.024586689275116574,0.25500076359388696,1423.9412444222698
46,211.2113097,1938,23467,1950.1386441368627,24297.57204013634,1407,-0.024664406149844397,0.253278778274765,1425.392466420503
47,211.751905925,1935,23599,1956.978912319607,24761.849917324944,1411,-0.02418759231905465,0.19824225826138858,1426.2070941583909
48,212.29239679999998,1926,23885,1961.6852023828021,25154.63666221157,1409,-0.023543877225738877,0.1714660895835961,1425.9208362590048
49,212.83278232499998,1934,24305,1964.063398944446,25481.347799496667,1404,-0.023691386169594566,0.0956255995104206,1425.2950916215266
50,213.37306249999997,1947,24742,1964.7259507576243,25744.765974313763,1421,-0.023075235797323974,0.012624200578909048,1424.751364696795
51,213.91323732499998,1949,25264,1963.7782962241124,25938.939930688757,1431,-0.02221745657302166,-0.021823967902109522,1424.347459738585
52,214.45330679999998,1960,25849,1961.6409205191137,26100.922648304102,1434,-0.02201850223952447,-0.02210176302838524,1424.0399782554257
53,214.993270925,1974,26331,1960.897483521673,26351.683956601006,1442,-0.02184177033296383,-0.022029841229048525,1422.9804752089244
54,215.5331297,1976,26808,1963.166006025014,26740.018211057497,1433,-0.02186694587628866,-0.021874725552491453,1421.8730209064486
55,216.07288312499998,1979,27286,1967.9874289338,27179.848807446986,1411,-0.022444382977041925,-0.021706333308553497,1421.8576864707875
56,216.61253119999998,1982,27742,1974.1373757049612,27631.762893836254,1423,-0.02170031055900621,-0.021569011811938314,1422.1966295952068
57,217.152073925,1987,28022,1980.461550657961,28098.765476001183,1437,-0.021125408104474747,-0.021426788880113835,1422.710344515137
58,217.69151129999997,1994,28208,1986.757978663125,28587.879634872268,1432,-0.021438925764858473,-0.021235122199331137,1423.7845477813496
59,218.230843325,1993,28635,1993.5148247978052,29098.032707422033,1427,-0.02124465130245477,-0.021041546246008642,1425.064939183193
60,218.77006999999998,1998,29241,2000.7412625427144,29622.194138032,1433,-0.02073927247366296,-0.02088836710657849,1425.8806767989943
61,219.30919132499997,2008,29891,2008.136605585592,30150.669075176662,1443,-0.020263242836136713,-0.020748286038123762,1426.62642415454
62,219.84820729999998,1997,30363,2015.8569843031169,30685.33704047598,1432,-0.01991821194387647,-0.02060361301593266,1427.52193707669
63,220.38711792499998,1993,30803,2023.9600217445081,31239.09182540881,1428,-0.019611246095105866,-0.020462382559837088,1428.3716731975537
64,220.9259232,2014,31485,2032.202903802992,31821.550748600715,1430,-0.019816090393946592,-0.0203144214430114,1429.2369249586354
65,221.464623125,2024,32117,2040.3543228611807,32420.440734783853,1428,-0.01980527032864786,-0.020157051531745903,1429.9347663593467
66,222.0032177,2024,32540,2048.5635688237167,33023.276744659495,1426,-0.01959627736269498,-0.02000531681609793,1430.4083218192666
67,222.54170692499997,2031,32965,2056.4756393122893,33628.50288794698,1421,-0.019719402599081916,-0.01983677498189546,1431.1514417087315
68,223.0800908,2046,33454,2064.394051960367,34238.24603048702,1430,-0.019612837493632195,-0.019678903244081957,1431.8013545040385
69,223.61836932499997,2051,33843,2072.367528143293,34849.577317718875,1433,-0.01943885254151988,-0.01953404995328898,1432.168905297941
70,224.1565425,2060,34606,2080.6199460916046,35456.03730548756,1413,-0.019879555091255455,-0.01941316017142875,1432.2163355908128
71,224.69461032499999,2068,35348,2089.0751545900976,36055.58264060272,1395,-0.02022235576923077,-0.019318689264904744,1432.0581213617247
72,225.23257279999999,2078,36077,2097.746766631141,36640.84728985864,1407,-0.019735874584546606,-0.01924625914092437,1431.838003125751
73,225.77042992499997,2102,37115,2106.478130874951,37202.22675485218,1427,-0.01927855368006169,-0.01918965118705019,1431.6109538154608
74,226.30818169999998,2122,37841,2114.5447915014656,37737.84192167361,1429,-0.01940143901005067,-0.01913023319687932,1431.1757910711178
75,226.84582812499997,2129,38330,2122.167818070584,38249.632018844546,1427,-0.019391729510234525,-0.019082184737639115,1430.4256495050574
76,227.3833692,2144,38867,2129.586355296795,38729.152211827386,1447,-0.018979930833537564,-0.019029452908045953,1430.0453011392965
77,227.92080492499997,2150,39217,2136.642891118671,39170.92570613076,1447,-0.018965656783662018,-0.018971314607225315,1429.9368728623251
78,228.45813529999998,2177,39417,2143.780425377657,39573.82101519777,1457,-0.01933404940923738,-0.01893773021269883,1429.82536410788
79,228.99536032499998,2200,39680,2150.7750345420773,39926.64198509516,1463,-0.019663820704375667,-0.018915011961104317,1430.1001834695867
80,229.53248,2176,40166,2156.8051144985884,40220.17305035143,1446,-0.01921558304817057,-0.018902867712927984,1430.1355863099686
81,230.069494325,2168,40930,2162.2120546331325,40456.821196402314,1441,-0.018755482173262474,-0.018921001359692463,1429.6777729959636
82,230.60640329999998,2177,41387,2166.876191986187,40628.1742734822,1433,-0.01897475133894415,-0.018947316869008118,1429.3921946136675
83,231.143206925,2184,41605,2170.6548279688823,40718.70214500817,1424,-0.019279064458029984,-0.01900099438385535,1429.1099911662504
84,231.67990519999998,2185,41677,2173.9103037440973,40723.66436385797,1419,-0.01939633343461967,-0.019095251583811066,1428.941289723409
85,232.216498125,2187,41717,2176.4511087453434,40654.68959659257,1423,-0.019327093346825197,-0.019231719417292705,1428.4489569412397
86,232.75298569999998,2190,41871,2178.1048721374927,40516.15841808343,1423,-0.019329149971018877,-0.019400607200984566,1427.6835941923664
87,233.289367925,2180,41996,2179.03205055603,40304.30342703041,1422,-0.019037572835041188,-0.01955865165077678,1427.903803030619
88,233.8256448,2180,41851,2178.9328863620503,40011.959727286376,1427,-0.018981119709611555,-0.019739648539268247,1428.307889193386
89,234.36181632499998,2192,41355,2177.4782894289374,39634.63944823136,1428,-0.01950820927916656,-0.019948728469591063,1428.6320641463858
90,234.89788249999998,2187,40754,2175.505787220507,39190.82090194493,1429,-0.019654108434672128,-0.020201577607506054,1428.8547871978706
91,235.433843325,2171,40226,2172.907970735422,38687.64778364101,1430,-0.019471817106819077,-0.020484831630837426,1429.0242134589407
92,235.9696988,2174,39675,2169.17873564516,38113.95852680621,1421,-0.020079464547612065,-0.02078747127386448,1429.2388502570566
93,236.505448925,2179,38928,2164.168271081976,37470.74817096578,1418,-0.02070804647745517,-0.021135240445152016,1428.7046139210127
94,237.04109369999998,2178,38170,2158.5800584384283,36766.33692722301,1422,-0.021004667703934207,-0.021507074206907506,1428.4714263063443
95,237.576633125,2167,37382,2152.815148700949,36001.783347300494,1429,-0.02095697856027261,-0.02189863214040515,1429.0466148723365
96,238.11206719999998,2166,36499,2146.619062719386,35190.578019886525,1428,-0.021495354323828385,-0.022339403470800254,1429.0199778024144
97,238.64739592499998,2155,35518,2139.89209268609,34343.65888242023,1425,-0.02188052633156491,-0.022823379660812368,1428.0952003442612
98,239.1826193,2134,34437,2132.7387483294797,33475.12213187097,1425,-0.02194842584280098,-0.02331053129171979,1427.2073206640875
99,239.71773732499997,2126,33316,2126.0256177942465,32610.40406351157,1426,-0.02244309073420968,-0.023796823967775847,1426.7733357493667
100,240.25275,2125,32024,2120.19554236785,31749.77689188823,1427,-0.023345262383357303,-0.02431102705888079,1426.218872454615
101,240.787657325,2121,30815,2114.7896894606497,30892.482660988335,1428,-0.024151390534606538,-0.024831470338462475,1425.639221726399
102,241.3224593,2110,29696,2109.287390427829,30056.913338919898,1428,-0.024722685420140653,-0.025302973845072615,1425.859792973766
103,241.85715592499997,2090,28529,2103.792430179579,29243.70266597149,1432,-0.024887476833465715,-0.025747615516694283,1426.1865500917074
104,242.3917472,2079,27508,2099.130897642036,28453.103377199397,1429,-0.025561366943253765,-0.02617824161042194,1426.921946136918
105,242.92623312499998,2084,26700,2095.1479761715605,27702.87102765582,1430,-0.026568085797855055,-0.026582648067462612,1427.930915762504
106,243.46061369999998,2078,25732,2090.945910439608,27019.879068608057,1423,-0.02769087680730532,-0.026935806802356414,1428.674058302539
107,243.994888925,2075,24960,2087.024983578297,26412.0043262583,1426,-0.02835918724055058,-0.027239506564754785,1429.424766132841
108,244.52905879999997,2079,24512,2084.1313733039983,25872.418197467174,1441,-0.028440244282975972,-0.02751506939755429,1430.180660943595
109,245.063123325,2073,24121,2082.191442614742,25410.714059208105,1435,-0.02893686502177068,-0.02775315216159272,1431.0191850324761
110,245.59708249999997,2064,23577,2080.8511404561427,25042.04695463043,1443,-0.02886626690838098,-0.02794543200453815,1431.6097306846993
111,246.130936325,2066,23104,2080.453124646045,24783.813381956083,1463,-0.028662420382165606,-0.02809379888220167,1431.835013250556
112,246.66468479999997,2069,22907,2081.3543681623196,24647.50021517994,1446,-0.029897303004127077,-0.02819641001493742,1431.9121837413936
113,247.19832792499997,2060,22920,2083.3831796869295,24639.428050464998,1432,-0.030105465004793865,-0.02824318850283294,1431.9314820267457
114,247.7318657,2067,23231,2086.3229744727682,24754.789349701678,1431,-0.03005103005103005,-0.02822212948178661,1432.3839271557406
115,248.265298125,2073,23370,2090.5727423044286,24985.95275091121,1437,-0.02986336103676574,-0.02814421709797261,1433.4800561733855
116,248.79862519999998,2075,23427,2095.8563274365947,25325.51414528027,1438,-0.029833270887973024,-0.028010234694139324,1434.9495118801963
117,249.33184692499998,2086,23872,2101.3471199800274,25764.312215451726,1435,-0.029881575323602312,-0.027812696383968504,1436.3405286642685
118,249.8649633,2113,24544,2108.338308908428,26315.60162178029,1457,-0.02924524096116981,-0.027575910166924594,1437.8620127295926
119,250.397974325,2130,25291,2116.821943871848,26982.02106502927,1460,-0.028927939208151635,-0.027295280788639242,1439.859838274905
120,250.93087999999997,2126,26214,2127.0102154068763,27763.64694557015,1439,-0.028520425107937564,-0.02697934334134904,1442.051122335699
121,251.46368032499998,2136,27435,2138.896328342617,28653.370721873107,1439,-0.027550496067038223,-0.026619881189575166,1444.8676527214382
122,251.99637529999998,2152,28711,2151.779360800883,29629.54864209778,1448,-0.026507022101735757,-0.026215307140038172,1448.3916056988558
123,252.52896492499997,2171,29936,2165.602799610369,30681.299463180912,1456,-0.02575184584909058,-0.025773148443379697,1452.3839724568797
124,253.06144919999997,2180,31058,2180.2973113773396,31802.30138847931,1462,-0.02486321767435418,-0.025294151898428763,1456.7760538177256
125,253.593828125,2174,32310,2196.184398287575,32992.52030623507,1473,-0.023261215821608706,-0.02478470187487227,1462.0347912749726
126,254.1261017,2172,33778,2213.006681918008,34240.78429862445,1478,-0.02195785610327153,-0.024246346225562793,1468.5909080613094
127,254.65826992499998,2200,35077,2229.8819678814493,35528.188112980366,1479,-0.021930224777199865,-0.0236786457779502,1476.004099753081
128,255.19033279999996,2222,36555,2247.3049446193145,36841.73670977754,1486,-0.021437101331080885,-0.023094285287628212,1484.324899771201
129,255.722290325,2244,38260,2264.948583206824,38173.305352328876,1495,-0.02079631274988894,-0.02248230354459061,1493.8970531608584
130,256.2541425,2277,39798,2282.7144669187996,39518.357539241355,1508,-0.020495189360624718,-0.021848925536642673,1505.0000906022499
131,256.78588932499997,2298,40988,2300.565743278399,40862.05293438052,1517,-0.020186094598087363,-0.021197894933213817,1518.0371469342163
132,257.3175308,2318,42577,2317.9710072707885,42182.061564247524,1528,-0.019622941454084802,-0.020551452563470976,1532.0799338603072
133,257.849066925,2332,44545,2335.240549049763,43467.48968266469,1536,-0.018856750290194964,-0.019919701743234253,1546.8930213594576
134,258.3804977,2350,46361,2352.634465106752,44720.4405309285,1539,-0.01842721137897344,-0.01928336256027668,1563.3359985503337
135,258.91182312499996,2378,47831,2369.7635507032546,45942.11218827066,1557,-0.018062614128880383,-0.018650930000374887,1581.2345239982483
136,259.4430432,2399,48891,2386.3968606309995,47114.78377766111,1592,-0.017357825002150908,-0.018012185011088755,1600.8525674420407
137,259.974157925,2411,49836,2402.7820788692375,48234.36739223899,1621,-0.016657880864522932,-0.017351322363589276,1623.3910620851805
138,260.5051673,2415,50679,2419.2066864481176,49305.10278828418,1650,-0.015850323222277474,-0.016724009580225407,1647.7785906815238
139,261.03607132499997,2436,51510,2434.365738748283,50307.92489071004,1672,-0.015568325386151527,-0.01610777147680957,1673.0246664703297
140,261.56687,2459,52267,2448.5222768352155,51240.30958798515,1685,-0.015539672341792482,-0.01548779973998313,1699.8153525560845
141,262.097563325,2477,53138,2461.7666991324363,52098.098484675895,1709,-0.015159590217326938,-0.014854339302662334,1729.0092414323892
142,262.62815129999996,2513,54395,2473.570114838341,52866.27996104001,1753,-0.01464862572761266,-0.014208577591609777,1760.3269156718954
143,263.158633925,2525,55164,2484.132030170511,53554.042379214814,1784,-0.014077015140865137,-0.013555725296407313,1793.670660717083
144,263.6890112,2540,55511,2494.604566354796,54161.62486126422,1811,-0.013762247267372713,-0.012892955742737796,1829.6559604973713
145,264.219283125,2541,55614,2504.0899680626485,54676.505787219496,1859,-0.012850225161569914,-0.012220380711173408,1867.3508120228864
146,264.7494497,2527,55657,2511.6623706085725,55108.95757548196,1902,-0.01176359872012046,-0.011518398177737648,1906.6726992683502
147,265.27951092499995,2543,56080,2518.636141248904,55479.55267389869,1939,-0.01128191717877356,-0.010781845702226655,1948.7954880064863
148,265.8094668,2549,56526,2524.813585811635,55785.36607850581,1986,-0.010430368490282898,-0.010004805866208926,1993.5424584927928
149,266.33931732499997,2541,56793,2529.9139731363753,56008.24906566292,2044,-0.009160952591609525,-0.009193190351715935,2040.009717094346
150,266.8690625,2527,56646,2533.673559989985,56136.53899295459,2093,-0.008019364733272973,-0.008341647472997225,2087.755260594764
151,267.398702325,2523,56237,2535.63303812086,56186.109130443554,2131,-0.00729791115910191,-0.007414687268156452,2137.6656775917504
152,267.9282368,2544,56064,2536.037667897299,56179.03171079645,2188,-0.006651718983557549,-0.006424354018899053,2189.782237423229
153,268.457665925,2538,55974,2535.73686833219,56107.62857595761,2248,-0.0054270529231229886,-0.005395382504621298,2244.166232530705
154,268.9869897,2526,55645,2534.244830007426,55972.16784072012,2306,-0.0041416442327604054,-0.004303111208860758,2300.680173956331
155,269.516208125,2518,55109,2531.657500736095,55786.04591270363,2351,-0.0031754482706166454,-0.003154687850743656,2358.8440055266938
