,x_(nm),baseline_dark,baseline_light,baseline_dark_smoothed,baseline_light_smoothed,raw_signal,calibrated_signal,calibrated_signal_smoothed,raw_signal_smoothed
0,186.23,1302,1308,1287.7735374749793,4439.485386607483,1290,-2.0,,1290.8839877186153
1,186.775442325,1296,1308,1293.486893005871,3357.7296792737493,1286,-0.8333333333333334,,1292.392178997062
2,187.3207793,1293,1314,1298.7645796973839,2412.8921117358473,1300,0.3333333333333333,,1294.0668951341215
3,187.86601092499998,1292,1307,1303.6225872448636,1600.130237058544,1302,0.6666666666666666,,1295.8989768363397
4,188.41113719999998,1303,1306,1308.076905343656,914.6016083066065,1297,-2.0,,1297.879264810262
5,188.956158125,1311,1311,1312.1435236891075,351.46377854480215,1294,-inf,,1299.9985997624333
6,189.50107369999998,1316,1309,1315.838431976564,-94.12569916210123,1289,3.857142857142857,,1302.2478223993999
7,190.045883925,1331,1317,1319.177619901371,-427.00927174933804,1293,2.7142857142857144,,1304.6177734277067
8,190.59058879999998,1331,1329,1322.177077158875,-652.0293861521386,1307,12.0,,1307.0992935538993
9,191.135188325,1322,1332,1324.8527934444216,-774.0284893057378,1320,-0.2,,1309.6832234845235
10,191.67968249999998,1325,1333,1327.220758453357,-797.8490281453669,1325,0.0,,1312.3604039261245
11,192.22407132499998,1326,1326,1329.296961881027,-728.3334496062598,1331,inf,,1315.1216755852477
12,192.7683548,1315,1326,1331.0973934227777,-570.3242006236487,1331,1.4545454545454546,,1317.9578791684387
13,193.312532925,1307,1332,1332.638042773955,-328.66372813276575,1311,0.16,,1320.859855382243
14,193.8566057,1321,1338,1333.934899629905,-8.194479068846704,1317,-0.23529411764705882,,1323.8184449332061
15,194.400573125,1336,1355,1335.0039536859733,386.24109963288083,1332,-0.21052631578947367,,1326.8244885278734
16,194.9444352,1353,1371,1335.8611946375063,849.800561037182,1339,-0.7777777777777778,,1329.8688268727906
17,195.488191925,1358,1378,1336.5226121798498,1377.6414582088223,1343,-0.75,,1332.9423006745028
18,196.0318433,1347,1380,1337.0041960083497,1964.921344212571,1342,-0.15151515151515152,,1336.0357506395555
19,196.575389325,1341,1362,1337.3219358183521,2606.797772113191,1335,-0.2857142857142857,,1339.1400174744947
20,197.11883,1336,1357,1337.4918213052028,3298.428294975459,1325,-0.5238095238095238,,1342.2459418858655
21,197.662165325,1348,1368,1337.5298421642478,4034.970465864132,1334,-0.7,,1345.3443645802133
22,198.2053953,1351,1361,1337.4519880908333,4811.5818378439835,1346,-0.5,,1348.4261262640837
23,198.74851992499998,1334,1358,1337.2742487803048,5623.419963979779,1347,0.5416666666666666,,1351.4820676440222
24,199.2915392,1329,1365,1337.0126139280087,6465.642397336287,1344,0.4166666666666667,,1354.5030294265741
25,199.83445312499998,1346,1375,1336.6830732292658,7333.4066909781395,1350,0.13793103448275862,inf,1357.4798523182596
26,200.3772617,1348,2478,1337.1266619855235,8092.79005186965,1351,0.002654867256637168,inf,1360.0918027588134
27,200.919964925,1323,7009,1337.3475276902957,8867.426396973713,1355,0.005627857896588111,inf,1361.9656164352273
28,201.4625628,1319,12319,1336.9281297424375,9659.048993181996,1367,0.004363636363636364,inf,1363.9010623116912
29,202.005055325,1321,14478,1336.7821241703973,10465.663050125511,1376,0.004180284259329634,inf,1366.4077102538868
30,202.5474425,1329,15408,1336.8435751658897,11282.372533919011,1390,0.004332694083386604,inf,1369.2052594622492
31,203.089724325,1330,16134,1336.3616389951947,12106.830120727305,1386,0.0037827614158335585,-inf,1371.6700718022794
32,203.63190079999998,1334,16831,1335.7004915173363,12940.657931096719,1376,0.002710201974575724,-inf,1373.3079797956655
33,204.173971925,1336,17326,1336.3090670230101,13781.890914856243,1374,0.0023764853033145716,-inf,1375.0370336813708
34,204.71593769999998,1336,17673,1337.2828603139112,14620.173254207062,1381,0.002754483687335496,-inf,1377.3084554576285
35,205.257798125,1338,17927,1337.344084803707,15448.421459149402,1384,0.00277292181566098,-inf,1379.8994088201052
36,205.7995532,1341,18285,1337.2587601077912,16261.86996307926,1385,0.0025967894239848914,-inf,1382.8248657953484
37,206.34120292499998,1344,18870,1337.3912659403127,17062.165281206493,1395,0.002909962341663814,-0.03020573016924173,1385.68474937142
38,206.88274729999998,1335,19487,1337.3447416702277,17849.640739314254,1404,0.0038012340237990306,0.02215974635580524,1387.8599515277547
39,207.424186325,1330,19783,1336.8661577838427,18613.58495096116,1382,0.0028179699777813906,0.04159395890752887,1388.816507735143
40,207.96552,1329,19984,1336.6251104215014,19349.17008312722,1371,0.00225140712945591,0.04982730223260435,1389.9677908899143
41,208.506748325,1333,20293,1336.8468594984906,20059.23726471682,1385,0.0027426160337552744,0.05813921069367088,1391.7966431855496
42,209.0478713,1339,20693,1337.5891413168786,20740.619266574155,1398,0.0030484654335021185,0.04742462155843169,1393.7144895693862
43,209.588888925,1338,21162,1338.3285918140587,21387.698090556565,1394,0.002824858757062147,0.0335156111857949,1395.3732360868607
44,210.12980119999997,1335,21507,1339.1395728102307,21996.717207637354,1391,0.002776125322228832,0.03488885456745116,1396.8256812158556
45,210.670608125,1336,21905,1340.14831593012,22552.923373122398,1399,0.0030628615878263406,0.03122330826568522,1398.027996104075
46,211.2113097,1338,22263,1341.0713039932698,23055.691340686775,1397,0.0028195937873357227,0.01831979485382501,1398.830415184915
47,211.751905925,1341,22426,1342.2220208837994,23503.11166730798,1396,0.002608489447474508,-0.0033028213894604748,1399.7986590862492
48,212.29239679999998,1350,22703,1343.5315182676588,23884.010917574113,1399,0.0022947595185688193,-0.02263840285085067,1400.8685587442255
49,212.83278232499998,1355,23086,1344.4146639787732,24203.650614962502,1386,0.0014265335235378032,-0.011358817757208579,1402.003284332574
50,213.37306249999997,1356,23512,1344.953792837864,24463.52454189176,1385,0.0013089005235602095,-0.0011458713651411412,1402.6883055108565
51,213.91323732499998,1343,24032,1345.2903803030388,24656.6241817477,1400,0.00251223059632421,0.0023807706566499683,1402.3430202269317
52,214.45330679999998,1340,24608,1345.4657863145,24818.221930281074,1419,0.003395220904246175,0.002305187651301456,1401.7353280934747
53,214.993270925,1354,25053,1344.4736460621727,25061.37710933382,1432,0.0032912781130005485,0.002325271758528153,1400.7475367505222
54,215.5331297,1338,25453,1343.2493601213814,25431.719903055076,1416,0.003234501347708895,0.0023171121294653994,1399.8903938933795
55,216.07288312499998,1335,25924,1343.1224716301358,25849.504382884734,1398,0.0025621212737402905,0.0022989449144542842,1399.916351446212
56,216.61253119999998,1358,26383,1343.9170762644426,26280.53826813694,1400,0.0016783216783216783,0.0022792869121574517,1400.572334594188
57,217.152073925,1370,26660,1345.0385512695386,26726.999048675563,1417,0.0018584420719652036,0.0022473737370459906,1401.341185530789
58,217.69151129999997,1343,26867,1345.9177104803928,27192.225622323884,1412,0.0027033380347907853,0.002204026655983897,1402.1188248884189
59,218.230843325,1329,27297,1346.872681147905,27676.47321570084,1401,0.0027726432532347504,0.002144834428808797,1402.6269451176427
60,218.77006999999998,1349,27857,1347.8226686900916,28173.651294479518,1397,0.0018107741059302852,0.0020983736296021844,1403.3908808806273
61,219.30919132499997,1357,28490,1348.2200955853784,28674.014994676567,1384,0.0009950982198798511,0.0020580115117598136,1403.7985684839705
62,219.84820729999998,1351,28958,1348.4725814853985,29180.454483679707,1385,0.0012315717028289926,0.0020174485319662126,1404.1542956805094
63,220.38711792499998,1344,29287,1348.9823552062078,29705.033386939114,1403,0.0021114411480513905,0.0019876767721922666,1404.990758567551
64,220.9259232,1346,29859,1349.156900496022,30255.337991799912,1420,0.0025953074036404447,0.001981102923190634,1405.8016263108746
65,221.464623125,1348,30495,1349.5038166209622,30819.996172053136,1414,0.002264383984629636,0.0019329024613162367,1405.7124736686856
66,222.0032177,1346,30929,1349.6379079933602,31389.490883145107,1400,0.0018253726802555522,0.001870243144369847,1405.1784185371991
67,222.54170692499997,1347,31327,1349.6621894040375,31960.163559762917,1398,0.0017011340893929286,0.0018304071169017702,1405.1021087680085
68,223.0800908,1357,31760,1349.703232236265,32532.099685156456,1406,0.0016116830575930007,0.0018041636110040949,1405.3378558970487
69,223.61836932499997,1348,32165,1349.416340120928,33105.08210831439,1408,0.0019469773177142487,0.0017793971167745911,1405.3595098416458
70,224.1565425,1336,32926,1348.8776642732305,33672.36424381009,1404,0.002152579930357708,0.0017625606279363234,1405.3758635529414
71,224.69461032499999,1332,33619,1348.0820856644289,34231.597929737276,1399,0.0020751386006751943,0.001764436627140971,1405.5924029989085
72,225.23257279999999,1335,34278,1347.4837482162418,34777.83560216473,1392,0.0017302613605318278,0.0017506052813938571,1405.5158440734515
73,225.77042992499997,1333,35200,1347.223787628233,35303.00095132325,1391,0.0017125815690790444,0.0017233735933754534,1405.3685474189408
74,226.30818169999998,1329,35840,1347.1326417359137,35802.02715803234,1380,0.0014777896902436905,0.0016970927556390805,1405.467190649818
75,226.84582812499997,1332,36281,1347.1953158621682,36275.78148995378,1381,0.0014020429769092105,0.0016391056963314312,1404.985209177984
76,227.3833692,1356,36789,1347.1770595030205,36720.701035130325,1414,0.0016368921626732143,0.001571358604683684,1404.1835149153733
77,227.92080492499997,1369,37114,1346.497451810887,37131.01508527868,1420,0.0014267729752412924,0.0015480728737736072,1403.7501415660336
78,228.45813529999998,1390,37381,1345.8619447778854,37501.965140772576,1435,0.001250312578144536,0.0015593809561085434,1404.1567419420332
79,228.99536032499998,1400,37665,1345.7482615687525,37823.00115517833,1444,0.0012132910519784916,0.0015847742117089194,1405.3942105143676
80,229.53248,1368,38106,1345.0322997123121,38085.74343699671,1425,0.0015515270292340356,0.0016220260753303257,1406.2556116786066
81,230.069494325,1343,38698,1344.1451221997975,38294.88876305166,1419,0.002034533529647972,0.001642053107175712,1406.4875761625137
82,230.60640329999998,1328,39092,1344.2091100590922,38443.28578223668,1412,0.0022243406418811567,0.0016311335631347572,1406.8489433508983
83,231.143206925,1335,39373,1344.7087363246928,38515.83061903933,1399,0.001682527998317472,0.0016306128334719902,1407.7725203288592
84,231.67990519999998,1330,39419,1344.2922149991816,38507.94348682796,1401,0.0018640552390453936,0.0016726335745583477,1408.6735599900067
85,232.216498125,1325,39443,1343.4150263878878,38429.491517360926,1394,0.001810168424366441,0.0017288590491202254,1409.3519445513782
86,232.75298569999998,1342,39615,1342.824616639083,38284.29887426596,1405,0.0016460690303869568,0.0017665799111609636,1409.693220684473
87,233.289367925,1349,39713,1342.6467190649587,38070.93089311124,1405,0.0014597018037743718,0.0017876092340384875,1409.7988629413758
88,233.8256448,1343,39551,1342.6141022446457,37781.60388683703,1396,0.00138714405360134,0.0018380952460342193,1410.487734716501
89,234.36181632499998,1344,39059,1342.4466465831358,37409.71048041787,1405,0.0016173936099695082,0.001927588229532506,1411.8325216878934
90,234.89788249999998,1329,38464,1342.2698362363556,36971.802079321584,1413,0.0022620169651272385,0.002013737299573379,1413.102539128832
91,235.433843325,1329,37887,1342.1261636729905,36476.68880382272,1414,0.0023250724875540237,0.002093291025780369,1414.1018596117422
92,235.9696988,1331,37345,1342.083195542342,35917.76835262338,1409,0.0021658244016215917,0.0021673209396991496,1414.830415184915
93,236.505448925,1332,36715,1341.7871978980015,35292.235294116974,1410,0.0022044484639516153,0.0022313225395042416,1414.871458017142
94,237.04109369999998,1339,35991,1341.154884595322,34606.84085709689,1413,0.0021355188733695025,0.002303619805426725,1414.5437042741355
95,237.576633125,1342,35188,1340.1626084395766,33866.54646764302,1409,0.001979554452520239,0.0024095393526426764,1414.5233867131487
96,238.11206719999998,1350,34322,1339.0784615732828,33083.53738476459,1409,0.0017893970641756642,0.0025255988015239405,1414.5567510022606
97,238.64739592499998,1344,33386,1337.9746993136619,32267.62635620224,1417,0.002278259784033456,0.0026292548220982754,1414.1283154771072
98,239.1826193,1333,32296,1336.8745611451873,31432.426736731824,1419,0.002777508639343733,0.002742351045493254,1413.7895988583841
99,239.71773732499997,1334,31250,1335.7271512378281,30598.845002151218,1414,0.002674154298703035,0.0028595226680555685,1413.4718340165985
100,240.25275,1333,30061,1334.7718861129101,29765.217037757928,1420,0.0030284043441938177,0.002939379977842996,1412.1821332306235
101,240.787657325,1337,28824,1334.2743890008576,28935.31912387541,1429,0.003347036781023757,0.003010889951354099,1410.9968515707899
102,241.3224593,1347,27697,1334.3042198011026,28125.804593534987,1433,0.003263757115749526,0.003113692269372181,1411.3095653355413
103,241.85715592499997,1342,26654,1334.7745815306998,27339.205961629414,1428,0.003397597977243995,0.0032159275315725017,1412.027724297239
104,242.3917472,1338,25729,1336.0777820561934,26577.313189426204,1419,0.003320897052191382,0.0033034655742098175,1413.0648712314846
105,242.92623312499998,1342,24954,1337.4177218056775,25853.874311988453,1421,0.0033457563950533625,0.003392269739266073,1414.2308999071054
106,243.46061369999998,1343,24012,1337.9284695009824,25191.0855738517,1427,0.003705500904318673,0.003487395784520753,1414.9435094792361
107,243.994888925,1333,23238,1337.9851865274154,24596.9567147609,1426,0.0042456060260214565,0.0035838626397041978,1415.3760674080681
108,244.52905879999997,1332,22768,1337.6064463521,24069.90985073229,1427,0.004431796977047956,0.0036853484432988366,1415.6594033839676
109,245.063123325,1337,22376,1337.3629300776659,23620.853949126373,1427,0.004277769855981748,0.003775435780111453,1415.816258578876
110,245.59708249999997,1336,21883,1337.1826768442972,23260.18276744616,1426,0.004380201489268506,0.0038633048779286396,1416.1580330245035
111,246.130936325,1345,21437,1336.8833722167856,23004.839769869774,1435,0.004479394783993629,0.003947263928292581,1416.577997236603
112,246.66468479999997,1341,21213,1336.8854787197643,22867.693424539186,1430,0.00447866344605475,0.004031421302347534,1417.7724297265806
113,247.19832792499997,1331,21231,1337.0203855126697,22851.517542865768,1407,0.003819095477386935,0.0041088051958577815,1419.2929624679784
114,247.7318657,1327,21499,1337.0925728781822,22951.852386237075,1397,0.00347015665278604,0.00417145212073979,1420.5494348682598
115,248.265298125,1327,21637,1337.1777616706804,23163.864526942416,1415,0.004332840965041851,0.004240002434271413,1422.5455616208471
116,248.79862519999998,1326,21746,1337.1489501460703,23480.292894515846,1420,0.004603330068560235,0.004324792279351926,1425.4411198441367
117,249.33184692499998,1318,22093,1337.0174182880444,23890.134725587894,1415,0.004669073405535499,0.0044157071819359035,1428.7879227162289
118,249.8649633,1325,22746,1336.608937914763,24408.153299055004,1436,0.005181830913589468,0.004511439189876432,1432.6560964007972
119,250.397974325,1348,23489,1336.2200955853782,25039.994065550265,1461,0.0051036538548394385,0.004609846648766556,1437.3112867788348
120,250.93087999999997,1356,24337,1335.805182450313,25784.468300527264,1460,0.004525477568426091,0.00470493001842747,1442.5551881129531
121,251.46368032499998,1350,25499,1335.4270538403784,26635.341434686576,1461,0.004596463621682057,0.004795594654774035,1448.496862896074
122,251.99637529999998,1347,26690,1335.5803075947106,27568.35613490627,1479,0.005208538847018901,0.004888747266194654,1455.7451357901373
123,252.52896492499997,1350,27796,1335.632970169174,28573.99707807597,1476,0.004764425622022234,0.004999062447320464,1464.0035334888394
124,253.06144919999997,1350,28875,1335.3894538947397,29647.967858841086,1480,0.004722979109900091,0.005132047656334334,1473.4241319168898
125,253.593828125,1338,30161,1335.3070058211708,30793.532220434758,1509,0.005932762030323006,0.0052772653491407915,1484.5243833382124
126,254.1261017,1321,31529,1335.5907042061854,31999.59217649263,1515,0.006422139830508475,0.005443721503966503,1497.7423271194984
127,254.65826992499998,1324,32786,1335.828353983077,33243.18455684097,1508,0.005848324963447969,0.005639467744835447,1512.8095993113939
128,255.19033279999996,1323,34142,1336.0398423520096,34512.33221590457,1514,0.005819799506383497,0.005853368873422584,1529.3436317923104
129,255.722290325,1320,35750,1336.0448028267656,35804.30650750798,1536,0.006273598605866976,0.006095078113542754,1547.692133457127
130,256.2541425,1338,37283,1336.0525946227292,37114.944687308176,1565,0.006315203783558214,0.006363770900884929,1568.3360891526124
131,256.78588932499997,1344,38571,1336.2783528505486,38428.055607147784,1589,0.006581244795444167,0.006667861515593942,1591.5560035334581
132,257.3175308,1339,40113,1336.3090443724402,39720.53740741504,1622,0.007298705317996596,0.007016882503276439,1616.8477428707024
133,257.849066925,1339,41924,1335.948922965387,40980.93324877042,1653,0.007736848589380313,0.00741708343181274,1643.8705293437815
134,258.3804977,1341,43642,1335.6139663412278,42211.557679674836,1679,0.007990354837947094,0.00787202804702004,1673.5902058936463
135,258.91182312499996,1333,45081,1335.4806450881983,43412.89848014595,1712,0.008663253177288105,0.008368368152361166,1706.1350879974302
136,259.4430432,1329,46131,1335.1063444245367,44569.054066908924,1743,0.009240658899156288,0.008914322258970993,1741.1141362204926
137,259.974157925,1334,47054,1335.200774649457,45675.21429703869,1772,0.00958005249343832,0.009521002356416376,1779.969036671238
138,260.5051673,1338,47957,1335.7139912568543,46732.36578404856,1810,0.010124627297882837,0.010188283979372043,1822.9869079707007
139,261.03607132499997,1336,48858,1335.6903667126971,47725.32650796076,1864,0.011110643491435545,0.010889955855334955,1867.8388638473903
140,261.56687,1338,49620,1335.169675417311,48651.48295544539,1908,0.01180564185410712,0.0116385590644668,1914.8127930417081
141,262.097563325,1326,50498,1334.586559151937,49505.176606490706,1952,0.012730822419262995,0.012471728288225023,1965.3743459647637
142,262.62815129999996,1326,51770,1333.912342295383,50272.8459308242,2011,0.013579414796606137,0.013389137232320655,2019.4407347844415
143,263.158633925,1335,52563,1332.9709166685286,50962.710888127855,2068,0.014308581244631842,0.014399301828695234,2077.935445876424
144,263.6890112,1334,52962,1332.1657795193294,51578.92715576698,2128,0.015379251568916091,0.015500842601700362,2140.864708147369
145,264.219283125,1342,53103,1332.2665745543247,52105.77874923454,2205,0.01667278452889241,0.016670484957712443,2207.0435343948484
146,264.7494497,1346,53110,1332.5053568596995,52550.74157964972,2280,0.01804342786492543,0.017919467531860998,2277.1937982739832
147,265.27951092499995,1339,53626,1332.1679086728777,52934.39475412704,2345,0.019239964044599996,0.01927237659820309,2352.5681668893526
148,265.8094668,1339,54174,1332.0918027588136,53252.46014632165,2437,0.020781678811393964,0.0207412855525478,2433.681306484812
149,266.33931732499997,1339,54435,1332.4994450610177,53488.794876440115,2529,0.022412234443272564,0.02229428111381693,2518.4433622505126
150,266.8690625,1334,54259,1333.1551111010185,53634.45384946329,2604,0.023996221067548416,0.023963806119813157,2606.771976715165
151,267.398702325,1318,53865,1333.618179347185,53706.05610546002,2681,0.025938683464327175,0.02578802018540535,2700.2460984393238
152,267.9282368,1320,53729,1333.44974971118,53719.61437405048,2779,0.027838729989124004,0.027758071772918856,2799.707128134219
153,268.457665925,1330,53667,1333.6142834492032,53667.80688124204,2897,0.029940577411773698,0.02983210782444056,2903.78524994898
154,268.9869897,1333,53331,1333.6114068268562,53548.75614396599,3005,0.032155082887803374,0.03201958036352026,3011.1423361796974
