,x_(nm),baseline_dark,baseline_light,baseline_dark_smoothed,baseline_light_smoothed,raw_signal,calibrated_signal,calibrated_signal_smoothed,raw_signal_smoothed
0,186.23,1052,1071,1023.8980999269559,4047.948110836018,1057,0.2631578947368421,,1038.2383075468533
1,186.775442325,1036,1070,1032.9922972575573,3022.49316903346,1054,0.5294117647058824,,1043.5023636288895
2,187.3207793,1046,1082,1041.4716412738287,2126.72800409956,1049,0.08333333333333333,,1048.57670961305
3,187.86601092499998,1048,1091,1049.3554933826451,1356.0740769941253,1045,-0.06976744186046512,,1053.465194589366
4,188.41113719999998,1042,1088,1056.6632149908821,705.9528486769627,1044,0.043478260869565216,,1058.1716676478686
5,188.956158125,1041,1081,1063.414167505415,171.78578010787896,1037,-0.1,,1062.699977878589
6,189.50107369999998,1046,1074,1069.6277123331188,-251.00566775331754,1042,-0.14285714285714285,,1067.0539743715578
7,190.045883925,1072,1086,1075.3232108808688,-567.0000339468197,1072,0.0,,1071.2375062168069
8,190.59058879999998,1092,1097,1080.5200245555404,-780.7758575128228,1085,-1.4,,1075.254422504367
9,191.135188325,1100,1099,1085.237514764009,-896.9116774915155,1087,13.0,,1079.108572324269
10,191.67968249999998,1101,1109,1089.4950429131495,-919.9860329230942,1100,-0.125,,1082.8038047665445
11,192.22407132499998,1096,1105,1093.3119704098376,-854.5774628477493,1101,0.5555555555555556,,1086.3439689212244
12,192.7683548,1085,1097,1096.7076586609485,-705.2645063056752,1094,0.75,,1089.7329138783396
13,193.312532925,1071,1093,1099.7014690733572,-476.62570233706174,1077,0.2727272727272727,,1092.9744887279214
14,193.8566057,1077,1103,1102.3127630539393,-173.23958998210583,1086,0.34615384615384615,,1096.072542560001
15,194.400573125,1093,1107,1104.5609020095699,200.3152917190023,1105,0.8571428571428571,,1099.0309244646091
16,194.9444352,1113,1116,1106.4652473471244,639.4604037260706,1115,0.6666666666666666,,1101.8534835317773
17,195.488191925,1125,1137,1108.0451604734778,1139.6172069989047,1115,-0.8333333333333334,,1104.5440688515366
18,196.0318433,1129,1152,1109.3200027955058,1696.2071624973123,1123,-0.2608695652173913,,1107.106529513918
19,196.575389325,1117,1141,1110.3091357200835,2304.6517311810976,1118,0.041666666666666664,,1109.5447146089527
20,197.11883,1109,1128,1111.0319206540862,2960.372374010075,1103,-0.3157894736842105,,1111.8624732266717
21,197.662165325,1124,1127,1111.507719004389,3658.7905519440446,1104,-6.666666666666667,,1114.063654457106
22,198.2053953,1123,1120,1111.7558921778673,4395.32772594282,1102,7.0,,1116.152107390287
23,198.74851992499998,1107,1107,1111.7958015813965,5165.4053569662055,1092,-inf,,1118.1316811162458
24,199.2915392,1107,1105,1111.6468086218517,5964.444905974,1107,-0.0,,1120.0062247250132
25,199.83445312499998,1138,1134,1111.3282747060875,6787.867833925893,1137,0.25,-inf,1121.779587306599
26,200.3772617,1140,2196,1111.7695078031,7510.4210514393,1136,-0.003787878787878788,-inf,1124.0366259711216
27,200.919964925,1113,6499,1111.4200321637875,8245.77641622671,1121,0.0014853323431117712,-inf,1125.7707988855705
28,201.4625628,1101,11504,1110.8176402636313,8997.142041722176,1125,0.002307026819186773,-inf,1126.7270606355532
29,202.005055325,1101,13604,1110.3667127228036,9762.81256653586,1125,0.0019195393105654642,-inf,1127.8156696640701
30,202.5474425,1105,14499,1109.6142834492075,10538.467281251922,1131,0.0019411676870240407,-inf,1129.0411334344842
31,203.089724325,1104,15163,1108.3513782871428,11322.863711522128,1133,0.0020627356141973115,-inf,1129.6510453237684
32,203.63190079999998,1098,15808,1106.9717320890406,12116.186368886945,1139,0.002787219578518015,-inf,1129.7239348569399
33,204.173971925,1096,16240,1106.324220254118,12916.820471584613,1140,0.0029054410987849975,-inf,1130.896939908017
34,204.71593769999998,1104,16571,1106.0238510498327,13716.200457541245,1144,0.0025861511605353334,-inf,1132.7192914901593
35,205.257798125,1104,16825,1105.9764887086699,14505.887041608818,1143,0.0024807582214871828,-inf,1134.437518403566
36,205.7995532,1095,17154,1105.9352646718853,15280.65154363603,1141,0.00286443738713494,-inf,1136.1890643049455
37,206.34120292499998,1095,17709,1105.7369815850657,16042.381571496217,1140,0.0027085590465872156,-inf,1138.0097170943632
38,206.88274729999998,1094,18324,1105.12383066432,16791.558200638425,1132,0.00220545560069646,-inf,1139.2883644023427
39,207.424186325,1088,18618,1103.7973227026448,17518.910235792097,1127,0.0022247575584711924,-inf,1139.4222745701836
40,207.96552,1091,18831,1102.7444562730539,18221.248884459095,1123,0.0018038331454340473,-inf,1140.0866384289345
41,208.506748325,1100,19158,1102.0213141860306,18899.529207909214,1127,0.001495182190718795,-inf,1141.6363451040575
42,209.0478713,1105,19517,1101.6563682076394,19548.25604203908,1146,0.0022268086030849447,-inf,1143.0068631225856
43,209.588888925,1107,19965,1101.4357516591333,20164.01039661109,1148,0.0021741435995333547,inf,1144.0156515436145
44,210.12980119999997,1105,20319,1101.7355999003162,20745.220072934437,1132,0.0014052253565108774,inf,1145.3973589435552
45,210.670608125,1102,20711,1101.986998572993,21278.692722371557,1137,0.0017848946912132184,inf,1146.9231919182546
46,211.2113097,1096,21023,1102.075199891256,21761.793381503125,1145,0.0024589752596978973,inf,1148.0548823302686
47,211.751905925,1096,21172,1102.791886565926,22188.54173367418,1144,0.002390914524805738,inf,1148.5814174726274
48,212.29239679999998,1100,21466,1103.5396271716022,22552.463430654847,1154,0.0026514779534518315,inf,1148.6119051393923
49,212.83278232499998,1106,21831,1103.8232802554771,22860.35357539198,1146,0.0019300361881785283,-0.0030159353793811922,1148.3379238487628
50,213.37306249999997,1112,22176,1103.9561484971134,23112.695916101846,1143,0.0014717052791492595,-0.004449854095533626,1148.1890416543756
51,213.91323732499998,1107,22664,1104.4532378989118,23301.05832521643,1146,0.001809157118337431,0.0021523573147527,1148.2360642369936
52,214.45330679999998,1110,23271,1105.0814967496221,23459.742848082184,1157,0.002120842922250801,0.001958980343071601,1148.0829690366493
53,214.993270925,1121,23716,1104.5803528958543,23698.190355386985,1176,0.0024341668510732464,0.001893964822581487,1146.728464970872
54,215.5331297,1111,24128,1103.3910394346206,24056.818115925158,1164,0.002302645870443585,0.001851465545723564,1145.0757888060666
55,216.07288312499998,1106,24583,1102.9757865410102,24463.11026297265,1151,0.001916769604293564,0.0018068298946607385,1144.4873043556827
56,216.61253119999998,1112,24978,1103.133932818389,24883.832884096555,1155,0.001801726305204056,0.0017746410252591678,1144.953045369069
57,217.152073925,1111,25247,1103.6056309315968,25319.469908717718,1169,0.0024030493868080877,0.0017471217919999976,1145.867177059481
58,217.69151129999997,1104,25451,1103.8225101361088,25772.02641056373,1155,0.0020947139277939786,0.001745168413729703,1146.9920496500267
59,218.230843325,1108,25815,1103.9780515979764,26240.74608711359,1140,0.0012951795037843526,0.0017473070853885203,1148.0734331468218
60,218.77006999999998,1106,26356,1104.8915037712986,26723.106638881458,1139,0.001306930693069307,0.0017324633369151193,1149.4302702212742
61,219.30919132499997,1106,27006,1106.006749869738,27210.20793222898,1146,0.0015444015444015444,0.0017093497995788322,1150.696255860813
62,219.84820729999998,1105,27491,1106.5832521687707,27704.21427438847,1141,0.0013643598878192982,0.0017091321531954918,1151.96570703751
63,220.38711792499998,1105,27833,1107.1610908514137,28216.836734693337,1148,0.0016087997605507332,0.0017027301710295735,1153.044145960249
64,220.9259232,1110,28373,1107.6583388071997,28755.118915490173,1165,0.0020173862010783848,0.0016796502728545003,1153.7097782509009
65,221.464623125,1100,28934,1107.6241364470104,29308.023783097582,1150,0.0017963641589423009,0.0016643902281352812,1154.1021540691527
66,222.0032177,1099,29339,1107.3004371559732,29865.43613671827,1132,0.001168555240793201,0.001639817433568907,1154.081995062154
67,222.54170692499997,1105,29805,1107.1605019366025,30424.32476386723,1143,0.00132404181184669,0.0016028878107525214,1153.9828535187437
68,223.0800908,1115,30273,1107.2638111848298,30985.47192461831,1153,0.0013032443926195212,0.0015824262524465566,1154.34145733763
69,223.61836932499997,1106,30651,1107.5191284060581,31547.187229608226,1147,0.0013877136571331867,0.0015509371238995706,1154.4761149742694
70,224.1565425,1098,31327,1107.760198418969,32105.41561530211,1134,0.0011909093916437857,0.0015029712774244732,1154.370767174772
71,224.69461032499999,1095,31987,1107.9009037577084,32658.5877822821,1125,0.0009711252104104623,0.0014628739665622675,1154.2859181408191
72,225.23257279999999,1088,32764,1107.6036150308967,33197.14362726159,1138,0.0015784821315822704,0.0014549359652838774,1154.5050171011583
73,225.77042992499997,1086,33676,1107.1948628507796,33714.13597136903,1146,0.001841055538508745,0.001459445267999631,1154.9350381661877
74,226.30818169999998,1084,34245,1106.941901288796,34207.79170536073,1138,0.001628418925846627,0.0014578009889652092,1155.1891322566541
75,226.84582812499997,1086,34648,1106.696912727334,34677.83752746315,1140,0.0016089625171324712,0.0014381420624662432,1155.0536138983675
76,227.3833692,1107,35207,1106.491925071894,35117.092414323546,1161,0.0015835777126099707,0.001412999712443706,1154.8485809417882
77,227.92080492499997,1113,35573,1105.928514802126,35523.19162381865,1170,0.0016540917005223447,0.001392225774710567,1154.3025663095204
78,228.45813529999998,1133,35800,1105.5001472286815,35894.9620829457,1201,0.0019615196007730694,0.0013787406745523732,1153.9998867471297
79,228.99536032499998,1153,36097,1105.6208294638398,36220.476726538975,1224,0.0020318223443223445,0.0013820195175132533,1154.5741692903357
80,229.53248,1134,36522,1105.5455842714232,36491.270221295366,1196,0.0017520063298293207,0.001384879562835778,1154.877618972095
81,230.069494325,1123,37081,1105.6712722824768,36709.630908966654,1169,0.0012792702597474832,0.0013519066188832911,1154.5193549117537
82,230.60640329999998,1114,37464,1106.1031053930792,36867.92432444606,1155,0.0011279229711141678,0.0013114111647985133,1154.25035674645
83,231.143206925,1118,37786,1106.4635439081082,36952.88035969033,1152,0.000927239009490564,0.0012976917710388965,1154.460463430633
84,231.67990519999998,1119,37900,1106.374595121046,36960.87560307071,1153,0.0009243903102145129,0.0013048251386468897,1154.5489818568713
85,232.216498125,1101,37920,1106.2780357425777,36899.06570930188,1146,0.0012221950623319481,0.0013025525671314692,1154.2609798636215
86,232.75298569999998,1092,38075,1106.1106027316375,36771.549593421565,1146,0.0014601303301516914,0.0012976105568200413,1153.7621916690982
87,233.289367925,1098,38148,1106.1752701080222,36578.93279575911,1141,0.0011605937921727396,0.001301528144944544,1153.6232757253624
88,233.8256448,1094,37965,1106.319282429932,36313.959251624474,1143,0.0013289577174473164,0.0013086415081781546,1153.4858773697938
89,234.36181632499998,1091,37499,1106.6800380529357,35969.83988312237,1145,0.0014831905075807514,0.0013108047846934316,1153.4019117080572
90,234.89788249999998,1098,36926,1107.2904256041827,35560.552175586534,1144,0.001283912024115217,0.0013177341776129709,1153.6729031234918
91,235.433843325,1107,36418,1107.3440395025723,35093.35038166143,1148,0.0011611112684432614,0.0013414325576796805,1153.6096174318566
92,235.9696988,1108,35949,1107.2709008131342,34561.64162268615,1149,0.001176774489825206,0.0013536443978621015,1152.9358082855563
93,236.505448925,1104,35316,1106.8672903123302,33966.52417948246,1149,0.0013153279551034725,0.0013766625851385165,1152.0618587057243
94,237.04109369999998,1100,34661,1106.2292011143868,33315.73390110697,1158,0.001728196418461905,0.0014150158563963398,1151.1637862692025
95,237.576633125,1097,33874,1105.6145552560433,32608.953792837267,1148,0.0015559691246910944,0.0014680858496133348,1150.5256064689806
96,238.11206719999998,1095,32983,1105.1623819338845,31857.243923984082,1148,0.0016620672353236327,0.001517915829494784,1149.8478561235593
97,238.64739592499998,1101,32141,1104.6811932319888,31072.696119956818,1142,0.001320876288659794,0.0015548738273730531,1148.7147613762263
98,239.1826193,1102,31152,1104.0347912749794,30271.253437223364,1129,0.0008985024958402662,0.0016168500007849593,1148.1199800674767
99,239.71773732499997,1098,30139,1103.189086955516,29471.461822464273,1141,0.0014806652663475776,0.0016885734325005645,1147.6585200117563
100,240.25275,1102,28993,1102.1912387596337,28670.03800765534,1144,0.001505862106055717,0.00173855258866124,1146.4392624974298
101,240.787657325,1107,27862,1101.2060522321926,27868.484858093645,1140,0.0012334143150812933,0.0017894522439071716,1145.2603229971016
102,241.3224593,1116,26775,1100.896985209157,27087.679743595032,1152,0.0014030164854437039,0.001839670863375101,1144.7773222496323
103,241.85715592499997,1117,25712,1100.8227592923752,26329.324174952497,1155,0.0015450294775360845,0.001893553535418791,1144.6963011619523
104,242.3917472,1113,24780,1101.3821604113132,25586.70866837252,1147,0.0014365994845143026,0.0019577100630588646,1145.6302067996792
105,242.92623312499998,1113,24011,1102.6493238804744,24882.33364289064,1147,0.0014848458380644597,0.0020260154334633238,1147.4930802509464
106,243.46061369999998,1102,23132,1103.3964076196305,24238.658157602196,1158,0.0025419881979119384,0.002100037589636244,1149.1730503521942
107,243.994888925,1097,22387,1104.0572153389446,23659.026478515487,1161,0.0030061061531235322,0.00215180371452424,1150.0959251624956
108,244.52905879999997,1098,21933,1104.6501619515518,23142.4835443607,1163,0.0031197504199664025,0.002189551877579712,1150.5385172936876
109,245.063123325,1106,21524,1105.68780719833,22700.703300187564,1157,0.0024977960622979724,0.002218175734481855,1151.2190763097472
110,245.59708249999997,1111,21030,1106.6481007497125,22344.965050170587,1155,0.0022089462322405743,0.0022477973277304076,1152.0513488414015
111,246.130936325,1113,20610,1106.9048449568293,22090.443022491592,1160,0.002410627275991178,0.0022858520867342367,1152.7286235248596
112,246.66468479999997,1106,20375,1107.114793087025,21950.014654918155,1154,0.0024910477969796044,0.0023229957509519083,1153.5306122448758
113,247.19832792499997,1102,20358,1107.9286960066834,21926.283992842003,1147,0.0023369339426672206,0.0023336679539843123,1154.081904459875
114,247.7318657,1093,20584,1108.2623615483717,22012.25710661581,1150,0.0029244266584577496,0.002351957566022866,1154.706946929693
115,248.265298125,1087,20711,1108.1437631656227,22204.064599424255,1156,0.0035161027313493683,0.002378054633406775,1155.449092844663
116,248.79862519999998,1093,20801,1108.4341661192568,22496.140320278628,1154,0.003095189770651512,0.0023882253834325968,1156.1502865296843
117,249.33184692499998,1093,21159,1108.8616503204844,22878.39930689213,1155,0.0030898036479617263,0.002388726754362365,1156.7582957711163
118,249.8649633,1109,21785,1109.3654442909026,23367.054746426424,1172,0.0030470110272780033,0.0023897274988944617,1157.73999411083
119,250.397974325,1131,22428,1109.8811977621024,23968.614192846493,1187,0.0026294783302812604,0.002389050291970271,1158.9332487711843
120,250.93087999999997,1127,23281,1109.949217422797,24682.620920065667,1177,0.002256928771327977,0.002401253006060592,1160.4757752157245
121,251.46368032499998,1116,24411,1109.4392398468608,25498.8340392756,1166,0.0021463833440652502,0.002423014329721666,1162.3353190332516
122,251.99637529999998,1114,25518,1108.9823325556424,26393.111123694256,1170,0.0022947057859367317,0.002440369814759029,1164.1778069718232
123,252.52896492499997,1111,26607,1108.6881016557352,27363.135790164597,1162,0.0020003137747097582,0.0024415737969434637,1165.7900292192126
124,253.06144919999997,1113,27621,1108.2357697795887,28402.397789303857,1164,0.001923947487550928,0.002437502539877103,1167.5587442523956
125,253.593828125,1113,28810,1107.7145348705308,29511.251240118123,1182,0.00249124453911976,0.0024636167059479026,1170.8387958956946
126,254.1261017,1111,30168,1107.665972049176,30681.006568664616,1184,0.002512303403654885,0.00249343303500931,1175.165802169902
127,254.65826992499998,1107,31352,1107.8796348727958,31890.423543001496,1185,0.002578938667548355,0.002518513192514504,1180.023805748692
128,255.19033279999996,1105,32648,1108.1314186051566,33127.9471109192,1187,0.002599625907491361,0.002552894488845653,1185.582935060794
129,255.722290325,1106,34412,1108.226777503433,34388.562821354295,1195,0.0026721911967813607,0.002600002882468273,1191.8799972819088
130,256.2541425,1109,35860,1108.2397109787098,35668.06661532469,1205,0.0027625104313544935,0.002653481569473582,1198.9091485650636
131,256.78588932499997,1116,37001,1108.3591700831062,36952.073591700115,1202,0.002396544517207747,0.0027188509955643468,1206.920949511857
132,257.3175308,1114,38515,1108.13454438377,38218.58871095534,1215,0.002700462554477153,0.002829035219274301,1216.0670683367457
133,257.849066925,1111,40288,1107.5109968515496,39453.45536705173,1230,0.0030374964902876687,0.0029814976466061255,1226.3693854900216
134,258.3804977,1102,41992,1106.7724297265863,40659.34505877745,1231,0.0031548055759354366,0.003168611046616631,1238.024938277174
135,258.91182312499996,1108,43423,1106.4649029422876,41837.84774286993,1239,0.003095828902280515,0.0033539936238948568,1250.5881446918152
136,259.4430432,1116,44458,1106.3111735259931,42972.7168678784,1250,0.003091689354436805,0.0035438592551765907,1263.8096899136772
137,259.974157925,1108,45347,1106.4311535934914,44060.08308228867,1259,0.0034132778769863695,0.003765100741293691,1278.7836870597052
138,260.5051673,1090,46203,1106.428186368866,45102.25511336524,1277,0.00414514663179128,0.004029540791808244,1295.8982762916237
139,261.03607132499997,1098,47143,1106.04613921038,46082.31559038621,1293,0.00423498751221631,0.00431827318592192,1313.8847992026747
140,261.56687,1107,47970,1105.2475027746736,46996.118190671594,1310,0.004331775601220579,0.004656128066060412,1333.1302860766696
141,262.097563325,1097,48865,1104.1460961742976,47841.92183288319,1332,0.00491961145536761,0.005047698691164796,1354.0178033477282
142,262.62815129999996,1099,50186,1102.991823144331,48607.4118779578,1365,0.00541895002750219,0.005461085148511238,1375.9728193163794
143,263.158633925,1096,51005,1101.7302543658764,49299.516183831074,1383,0.005750465847843074,0.005903827918914294,1399.135178599715
144,263.6890112,1089,51328,1101.2073433146634,49918.679086728065,1408,0.006349648679312884,0.006373397254603427,1424.200185734644
145,264.219283125,1097,51438,1101.574350494894,50448.3168814686,1442,0.006853260761605848,0.006869471464861527,1451.198622845337
146,264.7494497,1112,51511,1101.551043058712,50899.03814355834,1461,0.00692474057024941,0.007397636528121208,1479.3126458130141
147,265.27951092499995,1107,52059,1101.1537294162736,51290.79856848301,1504,0.007791647040351703,0.007958343619684236,1508.8103014790534
148,265.8094668,1106,52517,1100.9657976397896,51617.66773879265,1554,0.008714088424656203,0.008555405412256684,1540.1106253821988
149,266.33931732499997,1112,52784,1100.5108835987014,51863.36159369309,1587,0.009192599473602726,0.009181618186068352,1572.1450315975144
150,266.8690625,1110,52668,1100.3310833767257,52018.182019976804,1600,0.009503859730788626,0.009838778486416615,1605.0987791342645
151,267.398702325,1096,52280,1100.4303834741233,52099.118145370354,1621,0.010257111597374179,0.010541251751767126,1639.618722960851
152,267.9282368,1089,52177,1100.4391945457216,52124.0426283711,1654,0.01105934857500783,0.011276941970877445,1675.4420938186274
153,268.457665925,1095,52087,1100.6989286280339,52084.27044780075,1702,0.011903828051459052,0.012046167227177189,1712.6364810074645
154,268.9869897,1102,51744,1101.0781671158818,51978.51860744199,1746,0.012716717349235813,0.012848939704739458,1750.7876735599566
155,269.516208125,1102,51192,1101.3540963555022,51827.4063738693,1782,0.01357556398482731,0.013683684763995844,1789.6902987609794
