,x_(nm),baseline_dark,baseline_light,baseline_mirror,baseline_calibration,baseline_dark_smoothed,baseline_light_smoothed,raw_signal,calibrated_signal,calibrated_signal_smoothed,raw_signal_smoothed
0,186.23,1284,1279,0.3621226043733797,-0.07242452087467594,1265.3595909578137,4116.747295660722,1289,-0.3621226043733797,,1433.4181393892832
1,186.775442325,1274,1275,1.18800459154587,1.18800459154587,1271.7438363831247,3143.7387771105805,1279,5.940022957729349,,1380.7023022852109
2,187.3207793,1273,1268,1.908567993433533,-0.38171359868670657,1277.7240145792218,2292.4197322986533,1273,-0.0,,1335.0263308806839
3,187.86601092499998,1283,1269,1.7279185264672412,-0.12342275189051723,1283.3127003680029,1558.6380101984264,1268,1.8513412783577583,,1296.1389173085786
4,188.41113719999998,1289,1268,1.043047789334166,-0.049668942349246,1288.5224685713656,938.2414597833872,1270,0.9437099046356741,,1263.7887537017716
5,188.956158125,1289,1269,0.840365554154959,-0.04201827770774795,1293.365894011208,427.0779300270233,1276,0.5462376102007234,,1237.724532193139
6,189.50107369999998,1287,1280,0.8202728553565946,-0.11718183647951351,1297.8555515094274,20.995269902820837,1282,0.5859091823975675,,1217.6949449155577
7,190.045883925,1297,1298,0.837733819880384,0.837733819880384,1302.004015887922,-284.1586716157317,1306,7.539604378923456,,1203.4486840019033
8,190.59058879999998,1307,1311,0.8116271105193998,0.20290677762984996,1305.8238619685894,-492.53604555514903,1321,2.8406948868178996,,1194.7344415850528
9,191.135188325,1317,1322,0.8262856362484797,0.16525712724969593,1309.3276645733276,-608.2890029419423,1312,-0.8262856362484796,,1191.300909797882
10,191.67968249999998,1323,1323,0.8012221689422371,inf,1312.5279985240343,-635.5696948026243,1313,-inf,,1192.896780773268
11,192.22407132499998,1307,1309,0.7775424502505143,0.38877122512525714,1315.437438642607,-578.530272163709,1308,0.38877122512525714,,1199.2707466440866
12,192.7683548,1297,1306,0.7753865851703869,0.08615406501893189,1318.0685597509441,-441.32288605170834,1290,-0.6030784551325232,,1210.1714995432142
13,193.312532925,1295,1310,0.7956261498651602,0.05304174332434401,1320.4339366709428,-228.09968749313612,1280,-0.7956261498651602,,1225.3477316035273
14,193.8566057,1301,1317,0.7908861747409445,0.04943038592130903,1322.5461442245012,56.98717248549474,1297,-0.19772154368523612,,1244.5481349579024
15,194.400573125,1320,1331,0.7942231778648126,0.07220210707861932,1324.4177572335172,409.7855428576722,1323,0.21660632123585796,,1267.521401739216
16,194.9444352,1336,1329,0.7947581770897779,-0.11353688244139684,1326.0613505198883,826.1432725968843,1336,-0.0,,1294.0162240803438
17,195.488191925,1345,1329,0.7914877943554887,-0.04946798714721804,1327.4894989055126,1301.9082106766164,1343,0.09893597429443608,,1323.7812941141628
18,196.0318433,1349,1331,0.7911116722494277,-0.04395064845830154,1328.7147772122876,1832.9282060703572,1338,0.48345713304131693,,1356.5653039735494
19,196.575389325,1345,1331,0.7900325230816138,-0.056430894505829554,1329.7497602621113,2415.0511077515916,1328,0.9593252065991025,,1392.1169457913793
20,197.11883,1338,1317,0.798472358442206,-0.03802249325915267,1330.6070228768815,3044.1247646938073,1318,0.7604498651830534,,1430.1849117005295
21,197.662165325,1334,1310,0.7981102791346143,-0.033254594963942265,1331.2991398784957,3715.9970258704934,1318,0.5320735194230762,,1470.5178938338765
22,198.2053953,1336,1315,0.8040599544843242,-0.0382885692611583,1331.8386860888522,4426.515740255137,1326,0.382885692611583,,1512.8645843242962
23,198.74851992499998,1329,1314,0.8074165803696804,-0.053827772024645365,1332.2382363298484,5171.52875682122,1321,0.4306221761971629,,1556.973675304665
24,199.2915392,1325,1319,0.8060625325032217,-0.13434375541720361,1332.5103654233822,5946.8839245422405,1325,-0.0,,1602.5938589078596
25,199.83445312499998,1342,1343,0.8122546130835153,0.8122546130835153,1332.6676481913264,6748.429092391545,1359,13.80832842241976,-inf,1649.4738272667244
26,200.3772617,1348,2354,0.8144257223941842,0.0008095683125190697,1332.9443702008853,7461.72855557303,1418,0.05666978187633488,-inf,1691.1963124872266
27,200.919964925,1329,6448,0.8150182986479615,0.0001592143580089786,1332.7069242791201,8192.780153570706,1645,0.05031173713083724,-inf,1732.475933769701
28,201.4625628,1322,11168,0.8232603193402961,8.361368264679018e-05,1332.4390812928689,8941.530793449285,1918,0.04983375485748695,-inf,1774.081632653027
29,202.005055325,1331,13194,0.8194894939197722,6.907944819352375e-05,1332.7700287661978,9706.196244535364,2047,0.04946088490656301,-inf,1816.639538834367
30,202.5474425,1332,14129,0.8269202298982968,6.461828787202445e-05,1333.123672110328,10485.198600194595,2093,0.0491745170706106,inf,1859.7776167070247
31,203.089724325,1330,14803,0.8298864771900701,6.15962649142782e-05,1333.1106706833423,11277.030238510282,2119,0.0485994530173655,inf,1903.0516659493624
32,203.63190079999998,1325,15461,0.8293789756785952,5.8671404617897226e-05,1332.5878502344078,12082.92081360823,2142,0.04793453757282203,inf,1947.0025368637646
33,204.173971925,1326,15995,0.8303112569560028,5.660312611330035e-05,1332.5137149199045,12902.22591678156,2161,0.047263610304605796,inf,1992.3266212144854
34,204.71593769999998,1340,16375,0.832804584655424,5.5391059837407644e-05,1333.069627851115,13723.23635869416,2199,0.04758092040033317,inf,2038.1920088789839
35,205.257798125,1346,16697,0.8371769300637781,5.453566087315342e-05,1333.7897574123729,14539.774875987852,2228,0.04810045289012132,inf,2083.4155700015453
36,205.7995532,1333,17146,0.8381556767340916,5.3004216577125885e-05,1334.333121927991,15349.18510045498,2240,0.048074824435453176,0.5358646720226226,2127.9337470836986
37,206.34120292499998,1331,17744,0.840625124319978,5.12170306659342e-05,1334.4749824457826,16151.70320958541,2261,0.047631838519318806,0.5056002421364347,2171.276178395845
38,206.88274729999998,1327,18396,0.8415937915656597,4.930539525254319e-05,1334.1225848829843,16944.435796959966,2286,0.047283874047188916,0.44164608169141056,2212.6235475321782
39,207.424186325,1324,18782,0.8431564976534377,4.829628237217537e-05,1333.3414573376263,17719.33694987395,2299,0.04708887531287099,0.364046061172688,2251.9325692540738
40,207.96552,1336,19058,0.844165982526256,4.763378752546304e-05,1332.7498697591989,18475.824526036475,2318,0.046776379350004706,0.2971197955335986,2290.417314095406
41,208.506748325,1333,19439,0.8476484869242688,4.681588903812376e-05,1332.303109923189,19213.8795216196,2340,0.047143600261390625,0.2383310782148318,2328.437133343859
42,209.0478713,1322,19903,0.8491768105118729,4.570135140799058e-05,1332.332374459192,19928.980882918826,2363,0.04757510681571819,0.16965398684402672,2365.6820313030416
43,209.588888925,1314,20437,0.8502736512177026,4.4463402772457386e-05,1332.8611973090867,20615.07076037923,2384,0.0475758409665294,0.10005430304586653,2401.7653400982576
44,210.12980119999997,1317,20854,0.8513731200582484,4.357747453847819e-05,1333.559967383154,21269.585177466804,2400,0.04719440492517188,0.039376865737182576,2436.1748623977423
45,210.670608125,1323,21312,0.8534308197221572,4.269502324889475e-05,1334.3603479127244,21879.906113388333,2430,0.04726339073652649,-0.007099166225574246,2468.1285646333536
46,211.2113097,1326,21735,0.8557212941711507,4.1928624340788415e-05,1335.1156085075283,22444.49088314528,2456,0.04737934550509091,-0.05830902107924892,2496.7930190943825
47,211.751905925,1334,21981,0.8575135521308375,4.153211372745859e-05,1335.5627081020832,22959.00421300552,2472,0.04726354542184787,-0.11618717287801963,2522.187727921309
48,212.29239679999998,1337,22361,0.8580327959771828,4.081206221352658e-05,1336.0406351219476,23414.31595279576,2477,0.0465257509234203,-0.1793728385227739,2544.336678067405
49,212.83278232499998,1342,22858,0.8587529108532552,3.9912293681597656e-05,1336.647919545151,23816.033409589796,2489,0.045779400852792515,-0.24226769197772705,2563.574146639739
50,213.37306249999997,1351,23326,0.8598387128136875,3.9128041538734355e-05,1337.3410043262334,24163.532990554246,2511,0.04538852818493185,-0.3200196239800838,2579.8077646152306
51,213.91323732499998,1352,23866,0.8611437003932625,3.824925381510449e-05,1337.5392874130528,24449.958798613312,2543,0.04555486129378945,0.04642560653931138,2593.497927472826
52,214.45330679999998,1357,24493,0.8624756676121401,3.727851260425917e-05,1337.6484858093925,24709.09341094881,2605,0.04652358373011544,0.046623236948530385,2605.7540148134226
53,214.993270925,1353,25056,0.8630074298534857,3.640920684527215e-05,1336.7586581802275,25043.790550181853,2643,0.04696787683040107,0.046656853396497916,2621.306031846651
54,215.5331297,1337,25614,0.8629495266956824,3.5545970535720325e-05,1335.397947858363,25489.36326983575,2654,0.04681404319554367,0.04669329494886724,2643.3004371559437
55,216.07288312499998,1336,26143,0.8648478670709356,3.486305748663424e-05,1334.8984348456106,25975.452875489318,2677,0.04675136008957652,0.04674392964193241,2669.3732813879756
56,216.61253119999998,1343,26634,0.8650803831098881,3.4205068329045433e-05,1335.104668282382,26468.756936736452,2715,0.04692935374745034,0.04679289144069655,2696.3333710842307
57,217.152073925,1354,26982,0.8652291434094919,3.3761087225280625e-05,1335.7391560397489,26970.959840539475,2730,0.04645525602198614,0.0468206184549742,2723.5026161407436
58,217.69151129999997,1345,27222,0.8680312398394996,3.354450824436757e-05,1336.2873904278435,27486.717343540666,2733,0.04655977744318218,0.04683641928339017,2751.3677999501156
59,218.230843325,1329,27731,0.868212549145114,3.288434774430399e-05,1337.1372624521252,28015.384221612636,2750,0.046728658144655974,0.046834604711159675,2779.989852544738
60,218.77006999999998,1329,28358,0.868144571802742,3.211900446937519e-05,1338.5692994178546,28551.172710593124,2777,0.04650831847165528,0.046838149287271424,2809.5418695779663
61,219.30919132499997,1339,28981,0.8681762475955156,3.1407866565209305e-05,1339.9877460417872,29087.78536320132,2810,0.046200971717422885,0.046864954088003966,2839.630976919015
62,219.84820729999998,1334,29477,0.868951283960652,3.0876284829643324e-05,1341.0876124034262,29627.50041903497,2848,0.04674669523207999,0.046899132138668066,2869.853360211954
63,220.38711792499998,1335,29960,0.8691522224557424,3.0363396417667857e-05,1342.132573784205,30179.297651135348,2895,0.04736689841156186,0.04692327875900008,2900.496387234083
64,220.9259232,1341,30614,0.8692686507714266,2.969523625086006e-05,1342.8688758522019,30748.60637839983,2946,0.0476608541826304,0.046950296282635806,2932.278488753936
65,221.464623125,1334,31187,0.8701622824311823,2.9148235769644e-05,1343.5877143309897,31328.98165303797,2979,0.04794884784106438,0.046970398385386254,2964.490294230843
66,222.0032177,1344,31641,0.86932404321908,2.869340341350893e-05,1344.5301592334788,31911.045686198395,3006,0.04768843647325184,0.04697531705123822,2996.599651181169
67,222.54170692499997,1344,32089,0.8705973257298546,2.8316712497311907e-05,1345.3077759405394,32490.324197602942,3026,0.04762871042047863,0.047003349544471315,3029.2176493238226
68,223.0800908,1338,32602,0.8704844215444587,2.784302781296247e-05,1345.4796937642723,33070.17601757621,3046,0.0475558915045399,0.04705552091313351,3062.1509207455983
69,223.61836932499997,1339,33059,0.8703398065724872,2.7438203233684968e-05,1345.0263199619214,33652.073455796766,3062,0.0472760241716392,0.04711098220982529,3094.762214319631
70,224.1565425,1334,33817,0.8697053263836744,2.677416883858247e-05,1344.5913157715656,34232.38777775195,3089,0.04698866631171224,0.04716075327086059,3127.3082063013285
71,224.69461032499999,1329,34504,0.8700422735223692,2.6225840950184452e-05,1344.4005753244437,34809.666379758775,3136,0.047390094596983304,0.04721609350779596,3160.163016149796
72,225.23257279999999,1335,35226,0.8700397124616915,2.5671703769782287e-05,1344.0509411311436,35381.88532016512,3187,0.0475439953816368,0.047274574175526815,3192.6002853971163
73,225.77042992499997,1336,36172,0.8700678242154535,2.4976111614865468e-05,1343.950870914378,35942.18677659675,3242,0.04760446873793358,0.04733455176902252,3224.771614306038
74,226.30818169999998,1323,36810,0.8699872642519537,2.4515661066079232e-05,1343.9838501438053,36491.61439670138,3266,0.04763392945139195,0.04737070497047534,3255.970576909947
75,226.84582812499997,1311,37315,0.8700242014773532,2.4164653968374436e-05,1343.8280821762412,37037.4621395721,3292,0.04787017951134976,0.04739497456181153,3286.954698860613
76,227.3833692,1343,37905,0.8696880407569096,2.3786664863981994e-05,1343.9309837142146,37575.67335613419,3327,0.04719274309014027,0.0474091629092042,3317.7763256245253
77,227.92080492499997,1357,38250,0.87010037851645,2.358443006848047e-05,1344.191216109059,38102.189857074176,3349,0.046980184696413095,0.04741493171665118,3347.855376112645
78,228.45813529999998,1379,38474,0.8693067287349536,2.34346065166452e-05,1344.5887109560547,38618.275159119505,3399,0.0473379051636233,0.047444277415734745,3378.159505311494
79,228.99536032499998,1396,38798,0.8691277262341458,2.3237466612324095e-05,1344.6818727490736,39116.46136945269,3432,0.04731148202269186,0.04749856985411366,3408.2185326960316
80,229.53248,1384,39344,0.86926662631248,2.289954231592413e-05,1344.237468572309,39589.53514235807,3432,0.04689826266301262,0.04756977584005588,3437.3793743911997
81,230.069494325,1367,40148,0.8686441253792921,2.239870362753132e-05,1343.8484223877972,40045.65686651943,3467,0.04703727761781577,0.047643453509701714,3465.9688328160782
82,230.60640329999998,1353,40727,0.868302707705708,2.205269232756916e-05,1343.768058166637,40476.75913384144,3509,0.04754560465823911,0.04773010449706117,3494.0271127318183
83,231.143206925,1351,41163,0.8687016218294412,2.1820094992199366e-05,1343.8437790210166,40864.851593466796,3532,0.047589627177986815,0.04781856887401203,3520.1963124871913
84,231.67990519999998,1340,41491,0.8683284847277679,2.162657180961291e-05,1343.552719200862,41209.34757299066,3546,0.04770821741200608,0.047911835315223555,3543.814220027565
85,232.216498125,1332,41819,0.8683608504247778,2.144789316137965e-05,1342.8822396883024,41527.903689777,3572,0.04804328068149042,0.04802158499791073,3566.396407619583
86,232.75298569999998,1338,42250,0.868249886800152,2.1222376974974383e-05,1342.0174635891835,41824.48078099084,3604,0.04808990622529195,0.048134261032030556,3588.0016081903777
87,233.289367925,1335,42696,0.867778574191436,2.0980599458219967e-05,1341.4865342363103,42089.61394368987,3632,0.04819243695553126,0.0482404857805564,3608.183764071597
88,233.8256448,1332,42963,0.8676471171202086,2.0841371024481963e-05,1340.7880359690787,42314.05418016182,3657,0.04845618763192056,0.04836419724716521,3626.5343269382524
89,234.36181632499998,1335,43065,0.8677489292852631,2.0794366865211195e-05,1339.9455480305073,42490.37289632752,3658,0.04830531422788561,0.048522530008255536,3643.3314910869303
90,234.89788249999998,1328,43039,0.8672589311593729,2.0792091562402554e-05,1339.4661487236147,42640.14786291793,3665,0.04859111798133477,0.048696829767059385,3659.6914992411357
91,235.433843325,1328,43103,0.8668004592010585,2.0749262937188712e-05,1338.5172484087718,42770.29921402442,3692,0.04905125758351411,0.04889267616995154,3675.4408933383975
92,235.9696988,1327,43332,0.8665578153052318,2.0629872998577117e-05,1337.779995016849,42864.14475978988,3698,0.048913428879626346,0.04909417943200133,3689.735033636026
93,236.505448925,1332,43465,0.8666098942893835,2.0568435532465846e-05,1337.1317357131277,42918.01325058243,3707,0.04885003438960638,0.04929803092032984,3701.8279236222083
94,237.04109369999998,1340,43557,0.8664654382940954,2.0524088359999417e-05,1335.9077215791722,42940.51487009815,3733,0.049114143445478604,0.049513969829950266,3712.2454642233533
95,237.576633125,1337,43582,0.8658853313998153,2.0496753021654995e-05,1334.6430043715345,42926.554032933105,3742,0.04929469101708026,0.049727300886415145,3720.559582323424
96,238.11206719999998,1329,43614,0.8659634438688039,2.047921115924805e-05,1333.380212462318,42880.52932116161,3748,0.049539211794221036,0.049933172024091206,3726.751047588775
97,238.64739592499998,1332,43596,0.8653764850454776,2.0475498889018492e-05,1332.3288636208945,42813.235565923664,3773,0.04998069278809414,0.05015687133429693,3732.5136016670103
98,239.1826193,1327,43522,0.865240351462597,2.0505755455921247e-05,1331.7065165688662,42737.03825681134,3780,0.050300618133374816,0.050391497641295524,3738.7697569593156
99,239.71773732499997,1321,43426,0.8654717432609225,2.0555082371711732e-05,1330.5667625540525,42668.9567600617,3794,0.05083271870524311,0.05064412784892275,3746.095132392508
100,240.25275,1329,43081,0.8654328986505,2.0727938749053938e-05,1328.653763392124,42602.01479082117,3781,0.05082490581268026,0.050907247418703463,3753.2984212552224
101,240.787657325,1328,42714,0.8649750843904328,2.0900185676084493e-05,1326.3550703299934,42531.678158054856,3767,0.050975552863970076,0.05118164251011857,3760.4516297084147
102,241.3224593,1323,42444,0.8650023747478218,2.1035538404898272e-05,1325.1087227343514,42470.18152166445,3778,0.05164224678402526,0.05143672099918916,3768.3606423700835
103,241.85715592499997,1323,42133,0.864426750181391,2.1181738548919164e-05,1324.3168814695437,42410.5105891405,3788,0.05221298552308574,0.051684761673935264,3776.6082130964874
104,242.3917472,1330,41943,0.8640504083213235,2.1275217499847917e-05,1323.9989354232005,42344.02002310276,3792,0.052379585484625575,0.05193933817485562,3785.3561575572903
105,242.92623312499998,1332,41955,0.8638615542876957,2.1265331321854508e-05,1324.4837935173814,42281.481415206785,3787,0.05220638839515282,0.05216940015730865,3793.9568053635817
106,243.46061369999998,1327,41610,0.8647030136247108,2.1465705474386485e-05,1325.0210197286208,42239.8977100266,3776,0.0525695127067725,0.05238026786257615,3803.0743618201263
107,243.994888925,1321,41430,0.863747888775786,2.15350143054124e-05,1324.9187071054585,42221.380348364946,3775,0.05284692510548203,0.05259613621876962,3813.324945072296
108,244.52905879999997,1326,41693,0.8628771528607923,2.137580580327476e-05,1324.6325171577812,42218.41935264591,3796,0.05279824033408866,0.05281646319236057,3824.621803438284
109,245.063123325,1330,41854,0.8633129275796555,2.130374414124113e-05,1324.5237038211255,42234.548642097536,3826,0.053174145376537856,0.053026209231083525,3836.732768579056
110,245.59708249999997,1325,41642,0.8623491049005171,2.1389218069313615e-05,1324.1710118009214,42279.330924821945,3814,0.053237763774521586,0.053221487948693934,3849.6395161837586
111,246.130936325,1328,41371,0.862505803534046,2.1539490136454462e-05,1323.6437291897637,42365.13984461628,3804,0.05333177757786125,0.05341351228651106,3864.7709347889363
112,246.66468479999997,1324,41417,0.8631762817630669,2.152935130229883e-05,1323.0844186731042,42496.212915354,3813,0.053586555391421785,0.05359717616673972,3882.290855964953
113,247.19832792499997,1322,41695,0.8629529675416884,2.1374506911591616e-05,1322.667149878794,42674.35008720387,3844,0.053906506431034056,0.05376988898258979,3902.3630206798953
114,247.7318657,1325,42300,0.8621360146885437,2.1040537271227425e-05,1322.2988969172322,42893.55790618051,3882,0.05380065380252853,0.053939753214399415,3924.9355364786675
115,248.265298125,1316,42434,0.8624878814902607,2.0975920071264668e-05,1322.03916283492,43148.642891117874,3893,0.05405494602364905,0.05408870561272398,3948.856032979154
116,248.79862519999998,1322,42280,0.862427427307537,2.1056385255811732e-05,1321.8331106027063,43429.436340573135,3894,0.054157022877947776,0.05421792202394102,3973.370721873579
117,249.33184692499998,1323,42604,0.8621956715984717,2.088601709257217e-05,1321.6143514009125,43727.147296653675,3919,0.05422010037231735,0.05433093664497135,3998.0651883394103
118,249.8649633,1319,43134,0.8614594306460737,2.060168433925801e-05,1321.4632494506982,44058.1427212386,3967,0.05455326013035521,0.05441663326709628,4023.459965118046
