,x_(nm),baseline_dark,baseline_light,baseline_dark_smoothed,baseline_light_smoothed,raw_signal,calibrated_signal,calibrated_signal_smoothed,raw_signal_smoothed
0,186.23,1278,1287,1267.5389896000315,4395.870131635964,1279,0.1111111111111111,,1264.417086428184
1,186.775442325,1271,1278,1273.1238231657753,3320.7759248192233,1271,0.0,,1265.4131420928302
2,187.3207793,1270,1282,1278.4182670584753,2381.7570621991845,1260,-0.8333333333333334,,1266.701421119971
3,187.86601092499998,1281,1279,1283.4287447022018,1574.0057274256342,1262,9.5,,1268.2655257748954
4,188.41113719999998,1294,1278,1288.1616795210255,892.7141041483574,1265,1.8125,,1270.0890583228932
5,188.956158125,1289,1281,1292.6234949390168,333.07437601714173,1262,3.375,,1272.1556210292529
6,189.50107369999998,1284,1278,1296.820614380246,-109.72127331822776,1267,2.8333333333333335,,1274.4488161592644
7,190.045883925,1299,1301,1300.7594612687838,-440.4806602079634,1282,-8.5,,1276.9522459782168
8,190.59058879999998,1314,1311,1304.4464590287005,-664.0116010022793,1278,12.0,,1279.6495127513992
9,191.135188325,1327,1311,1307.8880310840668,-785.1219120513897,1281,2.875,,1282.524218744101
10,191.67968249999998,1325,1319,1311.0906008589532,-808.6194097055086,1298,4.5,,1285.5599662216118
11,192.22407132499998,1311,1320,1314.0605917774299,-739.3119103148483,1296,-1.6666666666666667,,1288.7403574492203
12,192.7683548,1309,1319,1316.8044272635675,-582.0072302296239,1286,-2.3,,1292.0489946922162
13,193.312532925,1304,1315,1319.3285307414367,-341.5131858000477,1285,-1.7272727272727273,,1295.4694802158888
14,193.8566057,1304,1326,1321.6393256351078,-22.637593376334735,1289,-0.6818181818181818,,1298.985416285527
15,194.400573125,1315,1334,1323.7432353686513,369.8117306913023,1293,-1.1578947368421053,,1302.5804051664204
16,194.9444352,1324,1342,1325.6466833661377,831.0269700526478,1304,-1.1111111111111112,,1306.2380491238582
17,195.488191925,1333,1349,1327.3560930516373,1356.2003083574914,1326,-0.4375,,1309.9419504231296
18,196.0318433,1346,1346,1328.877887849221,1940.5239292556157,1340,-inf,,1313.6757113295241
19,196.575389325,1342,1339,1330.2184911829588,2579.190016396813,1336,2.0,,1317.4229341083308
20,197.11883,1327,1337,1331.3843264769216,3267.390753430862,1333,0.6,,1321.167221024839
21,197.662165325,1321,1348,1332.3818171551795,4000.3183240075523,1330,0.3333333333333333,,1324.892174344338
22,198.2053953,1326,1343,1333.2173866418034,4773.16491177667,1315,-0.6470588235294118,,1328.581396332117
23,198.74851992499998,1334,1324,1333.8974583608635,5581.122700388002,1310,2.4,,1332.2184892534656
24,199.2915392,1336,1332,1334.4284557364304,6419.383873491335,1318,4.5,,1335.7870553736727
25,199.83445312499998,1356,1356,1334.8168021925494,7283.1406147363205,1341,-inf,-inf,1339.2706969580029
26,200.3772617,1356,2441,1334.9787764162013,8041.574894108432,1345,-0.010138248847926268,-inf,1342.8677886248583
27,200.919964925,1328,6957,1334.72767220093,8813.542866202915,1343,0.0026647717178895007,-inf,1346.1433554553641
28,201.4625628,1319,12221,1334.0438968039791,9601.499286506874,1339,0.00183452577508714,-inf,1348.6250424697926
29,202.005055325,1315,14379,1333.835987225053,10404.987111825663,1341,0.001990202082057563,-inf,1350.747287594257
30,202.5474425,1323,15375,1333.6944211646664,11219.629051620435,1352,0.00206376316538571,-inf,1352.9378468368218
31,203.089724325,1336,16095,1332.8063829305052,12042.058732926904,1355,0.0012873500914696117,-inf,1354.4193299961232
32,203.63190079999998,1337,16738,1331.7288273799832,12872.676074203022,1365,0.0018180637620933706,-inf,1355.6115200797042
33,204.173971925,1338,17214,1331.1572176039972,13711.32879566895,1373,0.002204585537918871,-inf,1357.4420938186336
34,204.71593769999998,1342,17575,1330.996421209968,14548.051937755956,1380,0.002340910490975174,-inf,1358.9893995333723
35,205.257798125,1346,17826,1331.1458470180269,15375.13957280996,1386,0.0024271844660194173,-inf,1360.3411855307897
36,205.7995532,1343,18208,1331.47049763299,16187.401028335551,1378,0.0020753038837829827,-inf,1362.2434483226996
37,206.34120292499998,1342,18783,1331.5498425785154,16987.26430949706,1373,0.001777421019436959,-inf,1364.023307436156
38,206.88274729999998,1337,19381,1331.0523907676024,17772.907064712337,1368,0.0017180226113943694,,1364.6873541869315
39,207.424186325,1328,19676,1330.152551586647,18532.800833540612,1367,0.0021255722694571615,,1364.5778386826169
40,207.96552,1327,19867,1329.5645201476564,19264.94717887118,1362,0.0018878101402373248,,1364.5623683435376
41,208.506748325,1319,20198,1329.3090670230104,19971.602301297495,1357,0.0020128184755548494,,1364.653446284148
42,209.0478713,1317,20596,1329.0519151056396,20650.352782622085,1371,0.0028009751543129832,,1364.5759813359043
43,209.588888925,1319,21050,1328.9496477836165,21294.354209607962,1369,0.0025340834220262533,,1364.8301660286493
44,210.12980119999997,1316,21428,1329.4860812249171,21901.558948107122,1359,0.002138027048528242,-inf,1365.6758250469736
45,210.670608125,1312,21840,1330.2693152732536,22457.365693446758,1354,0.0020459859703819173,inf,1366.5805114498366
46,211.2113097,1308,22197,1330.4712451017888,22958.728464970452,1351,0.0020584996888314425,inf,1367.0397744003
47,211.751905925,1311,22395,1329.9794559332913,23402.76635937349,1363,0.0024663251754885223,inf,1367.0979184126215
48,212.29239679999998,1323,22665,1329.2633581734326,23780.36433441255,1366,0.0020148064848655232,inf,1366.6155745316732
49,212.83278232499998,1330,23007,1328.7117715010277,24097.090760832172,1358,0.0012916916547492734,inf,1365.962535957753
50,213.37306249999997,1331,23393,1328.1017237083258,24353.660105551186,1361,0.0013598041881968997,inf,1365.4167478311817
51,213.91323732499998,1332,23887,1327.6509547214855,24542.549955830917,1356,0.0010640656173797384,0.0019234909639846544,1364.9848241183004
52,214.45330679999998,1332,24504,1327.4155926521298,24700.157919771205,1353,0.0009062661833247022,0.0015800404491073535,1364.3240390495557
53,214.993270925,1338,24979,1325.667761444175,24941.111463452828,1361,0.0009728860877289455,0.00157777466088016,1362.6392217264004
54,215.5331297,1325,25365,1323.6187229608572,25309.408933384184,1367,0.0017470881863560733,0.0015428474904339011,1360.3788760787074
55,216.07288312499998,1329,25796,1322.5372941629228,25725.604906112898,1359,0.001226141333224343,0.0015104598146096228,1359.1443067792893
56,216.61253119999998,1345,26243,1322.1138191125253,26155.9342227452,1371,0.0010442605831793717,0.001486073760791899,1358.8155790617873
57,217.152073925,1342,26553,1322.2832453735957,26601.155428208513,1378,0.00142794811788505,0.0014442485008785235,1358.9927744682516
58,217.69151129999997,1335,26752,1322.5035674646963,27061.744139164584,1364,0.0011409686430341897,0.0014162633889720938,1359.4450383926894
59,218.230843325,1333,27141,1322.806405581075,27539.594237694546,1361,0.0010849349039057656,0.0013924004524797594,1359.8808127024136
60,218.77006999999998,1335,27674,1323.1024258759853,28032.764569978397,1361,0.000987129351911614,0.0013751930205385858,1360.4338943124158
61,219.30919132499997,1327,28303,1323.5289587532873,28531.7026659715,1350,0.0008526097271648873,0.0013632060111149447,1361.1892455094983
62,219.84820729999998,1318,28741,1324.1393916056736,29037.96645450577,1342,0.0008751777704846296,0.0013450148242002589,1362.0606355749585
63,220.38711792499998,1331,29107,1324.761127092321,29560.393553647307,1359,0.0010080645161290322,0.0013192235335068227,1362.8306190400428
64,220.9259232,1336,29745,1324.7592017938996,30107.393984008122,1375,0.0013728043929740574,0.0013007016708813292,1363.3008675167919
65,221.464623125,1320,30372,1324.4322408208313,30670.4115381996,1367,0.0016177887925099821,0.0012952655168915659,1363.6752814333017
66,222.0032177,1313,30802,1324.2596887811474,31236.98421255235,1357,0.0014920817932110278,0.0012672219640024523,1363.451176697068
67,222.54170692499997,1317,31167,1324.096287571607,31805.027588393237,1364,0.001574539363484087,0.0012325694712971966,1362.8949919590218
68,223.0800908,1318,31615,1324.260934562479,32376.93587623667,1369,0.0016833349836617487,0.0012184567683098514,1362.946861763547
69,223.61836932499997,1308,31969,1324.5196267185866,32948.56010328596,1360,0.0016959655588532664,0.0012030717682868903,1363.084509275382
70,224.1565425,1293,32682,1324.6155518811045,33514.27169358246,1350,0.0018159227754946,0.0011787877235144002,1362.8580035787636
71,224.69461032499999,1292,33402,1324.1167636865812,34073.07796326012,1357,0.0020242914979757085,0.0011708606135136183,1362.5707943554519
72,225.23257279999999,1303,34129,1323.3078438922485,34619.64545063242,1363,0.0018278194114421495,0.0011736384951575166,1362.2577181815861
73,225.77042992499997,1311,35060,1322.5667852046226,35146.079095788584,1360,0.0014518948709591395,0.0011862640329487013,1362.1150648938558
74,226.30818169999998,1311,35679,1322.1837187705019,35646.33244241024,1351,0.0011638733705772813,0.0011826904741836293,1361.888332691541
75,226.84582812499997,1314,36142,1321.8905524473687,36120.42648757547,1344,0.0008613759044446996,0.0011610073057502794,1361.3504949149208
76,227.3833692,1332,36713,1321.713107884638,36563.26700491448,1355,0.0006500664198298522,0.0011447054445509312,1361.0376678973214
77,227.92080492499997,1332,37037,1321.6434573829279,36970.70742259096,1363,0.0008682257386920599,0.0011152325189253388,1360.4899318217592
78,228.45813529999998,1363,37244,1321.482343880923,37342.236154838574,1396,0.0009197068086173741,0.0010801946631012432,1359.6975469432796
79,228.99536032499998,1372,37476,1321.6318829418306,37666.17275589409,1416,0.0012187015289164636,0.0010385996568207658,1359.017508890323
80,229.53248,1339,37888,1321.4672586015283,37931.39380280341,1386,0.0012859448958931845,0.0010153049226729208,1358.423475050371
81,230.069494325,1324,38511,1321.3177421911907,38140.48494869573,1365,0.0011025358324145535,0.0009749477717493848,1357.4149131350393
82,230.60640329999998,1316,38924,1321.664522412713,38288.08903938861,1347,0.0008242927036800681,0.0009464436983704954,1357.117964166773
83,231.143206925,1315,39277,1321.9920949511627,38361.19171442088,1343,0.000737579684948106,0.0009422484243640604,1357.3056014858514
84,231.67990519999998,1313,39380,1322.0541801626057,38354.31783279276,1349,0.0009457010008668926,0.0009289215164799174,1356.930802509657
85,232.216498125,1318,39353,1322.026908876733,38276.870891752194,1352,0.0008939135007230183,0.0009086951114863207,1356.2582164941189
86,232.75298569999998,1320,39438,1321.8362363813198,38132.60128202151,1353,0.0008657327246969935,0.0008972119372305225,1355.52537996328
87,233.289367925,1313,39513,1321.2879793426553,37920.53758861963,1342,0.0007591623036649215,0.0009093969602005801,1354.8021472739779
88,233.8256448,1313,39409,1320.7794287526078,37632.124442229004,1339,0.0006824863502729946,0.0009259821401921214,1354.1154726041102
89,234.36181632499998,1332,38944,1320.8219891730023,37262.51086094744,1342,0.0002658725938530256,0.0009547257571187,1354.158803143873
90,234.89788249999998,1338,38294,1321.1617477179295,36829.141316903406,1342,0.00010823682216690118,0.0009839383765947018,1354.5342589865875
91,235.433843325,1335,37750,1321.2499490361931,36339.685723345254,1356,0.0005766854318275436,0.0009921222080671837,1354.2621803438096
92,235.9696988,1328,37226,1321.3367007179977,35784.84531925909,1362,0.0009471279737032703,0.0009743807372791039,1353.3743912659143
93,236.505448925,1313,36507,1321.4521733221338,35162.2894063279,1356,0.0012217991703131217,0.0009580218267276756,1352.4902489297344
94,237.04109369999998,1308,35807,1321.3155903870727,34482.0602052135,1352,0.0012753992869358533,0.0009675201471538252,1351.885456069194
95,237.576633125,1306,35047,1320.8401322793015,33744.01807515394,1354,0.0014226015826442606,0.0009919059746244462,1351.2240820856384
96,238.11206719999998,1318,34167,1319.8347640942916,32960.941833336474,1349,0.0009437121373557795,0.0010283091953330512,1350.3051031733191
97,238.64739592499998,1321,33214,1318.686244309019,32147.364923327204,1343,0.0006898065406201988,0.0010853338677870132,1349.7916827107942
98,239.1826193,1318,32141,1317.7915921085162,31316.064690026356,1346,0.0009084125490704993,0.0011525323441868608,1349.7760764682976
99,239.71773732499997,1315,31110,1316.9682892024482,30485.487349656258,1351,0.0012082564188622253,0.0012070823535765829,1349.452648984096
100,240.25275,1318,29929,1315.9643480033274,29655.89603388469,1353,0.0012233057215756177,0.001265655868366367,1349.0197512967193
101,240.787657325,1315,28752,1315.0083580601802,28831.579152415132,1347,0.001166308269854576,0.001322811739176254,1348.5571134113766
102,241.3224593,1312,27645,1314.6859045504743,28030.379147885033,1348,0.0013671059127330725,0.0013688916296359854,1348.3902466646778
103,241.85715592499997,1315,26542,1314.5867856576342,27248.020136355906,1351,0.0014270424545130217,0.0014150758279199197,1348.4966590409492
104,242.3917472,1311,25582,1315.635688237534,26487.214659448175,1354,0.001771661653825553,0.0014484945282809648,1349.3456703435832
105,242.92623312499998,1308,24821,1317.3975401481093,25762.168859996338,1358,0.002126483222047378,0.0014819820350555127,1350.9420824933488
106,243.46061369999998,1310,23941,1318.7223719676297,25096.648667013502,1366,0.0024744819053510673,0.0015245595313468636,1352.4951414527816
107,243.994888925,1310,23200,1319.3984688214657,24500.042854877334,1356,0.0021014161717679307,0.001568471708484646,1353.52270719606
108,244.52905879999997,1310,22743,1319.5784049468589,23968.989784592628,1349,0.001819623944384827,0.0016108304189527355,1354.068246166365
109,245.063123325,1314,22357,1319.5641124374024,23518.073818206078,1356,0.0019959131302570926,0.001658497850042072,1354.7505266257185
110,245.59708249999997,1317,21846,1319.2870053681595,23157.60782803643,1365,0.002338155779628818,0.0017148943085690425,1355.6606718158703
111,246.130936325,1328,21388,1319.208136084597,22901.850823347766,1370,0.002093718843469591,0.0017617646342501009,1356.539989580712
112,246.66468479999997,1337,21153,1319.3803257151662,22762.03080477431,1360,0.0011606782398062173,0.0017963955846000074,1357.3217739925901
113,247.19832792499997,1330,21153,1319.5112007066725,22743.145892318757,1348,0.000908036119658982,0.0018163922635904372,1357.617341276107
114,247.7318657,1327,21407,1319.3432693831996,22842.929443475063,1336,0.00044820717131474104,0.0018278848661119837,1357.4408027361626
115,248.265298125,1326,21537,1319.6395841355156,23053.592470950207,1339,0.0006432140913364009,0.0018296009427513902,1357.6104102017905
116,248.79862519999998,1321,21602,1320.2428820584587,23366.814808942,1354,0.001627138701247473,0.0018301721689674313,1358.3360665020464
117,249.33184692499998,1313,22001,1320.7836644091346,23773.62622029899,1367,0.0026102088167053363,0.0018366833239689842,1359.317810142899
118,249.8649633,1314,22663,1321.2375818251578,24287.1726426415,1378,0.0029977984917326336,0.0018505897932179496,1360.655258329721
119,250.397974325,1323,23344,1321.4299304627257,24912.73496568391,1380,0.0025884383088869713,0.0018660844858870034,1361.9408820131566
120,250.93087999999997,1324,24231,1321.106525629094,25653.552130285585,1379,0.0024010127908499585,0.001885554351931658,1363.1730277016206
121,251.46368032499998,1324,25410,1320.578133140023,26502.257265169712,1382,0.002408037864319522,0.0019155299003934096,1364.938163944797
122,251.99637529999998,1323,26524,1320.381277039092,27432.49942240995,1379,0.0022221340422999085,0.0019300757164254826,1366.6756438424163
123,252.52896492499997,1321,27623,1320.0269541778723,28435.50232168284,1372,0.0019390160444072693,0.0019387669611626093,1368.3225894130976
124,253.06144919999997,1324,28729,1319.5804208475588,29505.758884685383,1384,0.0021893814997263274,0.001956841942745158,1370.4989920496237
125,253.593828125,1329,29941,1319.2782395977006,30646.48116605074,1383,0.0018873200055920592,0.001983902542635534,1373.4104736233853
126,254.1261017,1330,31248,1319.366961879066,31847.756687580084,1379,0.0016378100140383716,0.0020192535386770595,1377.4731704002093
127,254.65826992499998,1328,32442,1319.6121316450858,33089.525085505265,1382,0.0017355531272096162,0.002057394596715624,1382.141226301815
128,255.19033279999996,1323,33915,1319.7009671792994,34357.48281954225,1385,0.0019023073146784487,0.002107633407392302,1387.3379691498974
129,255.722290325,1320,35560,1319.4335092527324,35645.034496816916,1403,0.0024240654205607477,0.002183973246928106,1393.7246823257337
130,256.2541425,1313,37118,1319.1540691748144,36949.53072549703,1416,0.0028766931992738444,0.0022791256612859395,1401.0552673899479
131,256.78588932499997,1299,38394,1318.7094384923528,38255.28333597516,1405,0.0028575279687289394,0.0023977140853555434,1409.2205032956308
132,257.3175308,1305,39936,1318.1100364673919,39541.72470497557,1414,0.0028215681706401595,0.0025486345243241537,1418.5186074429498
133,257.849066925,1312,41806,1317.5427529502115,40798.82289519502,1422,0.0027164518200227194,0.0027026536661712065,1428.1931867086184
134,258.3804977,1316,43526,1316.9358535866922,42027.05841581836,1421,0.0024875621890547263,0.002864542446776936,1438.4343699743772
135,258.91182312499996,1322,44968,1316.225848830073,43226.08161000166,1427,0.002405718737112221,0.0030507903657222266,1449.734648576384
136,259.4430432,1320,46004,1315.3301773539351,44381.30956533471,1441,0.002707904395309283,0.0032753634917760395,1462.4877800176398
137,259.974157925,1313,46917,1315.1929375523544,45487.9397721344,1458,0.0031795456538900096,0.0035127284351495016,1476.909963985566
138,260.5051673,1305,47783,1315.5804208475593,46547.18138576095,1478,0.0037221911441972545,0.003742938304329206,1492.5929692631485
139,261.03607132499997,1312,48650,1315.645405331919,47543.3461913058,1508,0.00414043685833791,0.003986015252333137,1508.9363518992216
140,261.56687,1315,49457,1315.3817527010551,48472.33454891298,1519,0.004237464168501516,0.004241352271671347,1526.0369204285194
141,262.097563325,1313,50336,1314.9804072572174,49328.67673106884,1520,0.00422250780246007,0.004525477545097501,1544.441889963503
142,262.62815129999996,1315,51628,1314.7496659040721,50100.12380801281,1548,0.004631009878162702,0.004853071650089299,1564.3367460191325
143,263.158633925,1313,52495,1314.2550227637971,50795.87086910138,1570,0.0050212965495682075,0.00523534790834742,1585.8276065142736
144,263.6890112,1306,52871,1313.64868966452,51415.24709506346,1597,0.005643362746048677,0.005674290801033509,1609.4428412874272
145,264.219283125,1316,52935,1313.8433939613328,51943.81990531962,1629,0.006063658730312482,0.006129672713470784,1634.4799882216726
146,264.7494497,1319,52919,1314.2199823325307,52392.82771976614,1650,0.006414728682170543,0.006595592560109921,1660.1314639062855
147,265.27951092499995,1319,53426,1314.5968878117033,52782.22260979762,1686,0.0070431995701153395,0.007095242860632282,1687.5322430858814
148,265.8094668,1329,53929,1315.0551541371012,53106.51668214354,1727,0.007566539923954373,0.007632285031799695,1716.9401798454903
149,266.33931732499997,1332,54219,1315.4343020226706,53348.55156402081,1760,0.008092726000718514,0.008195862664650588,1747.24557747624
150,266.8690625,1326,54082,1316.2111712609321,53499.309021720874,1792,0.008833118507847449,0.008800720160404145,1778.9311875693334
151,267.398702325,1316,53686,1317.1154499535407,53571.772792134696,1809,0.009413786518999427,0.009443823688925037,1812.1106480327633
152,267.9282368,1306,53504,1317.918389997483,53584.655892544666,1837,0.010172803555691789,0.010111360068536997,1846.3866225735226
153,268.457665925,1305,53439,1318.641622686785,53533.13155450758,1877,0.010971726704262094,0.010800817675400712,1881.3918775056832
154,268.9869897,1318,53153,1319.5109515504062,53417.81344990725,1899,0.011208642808912896,0.011511419836277369,1916.8904844956483
155,269.516208125,1313,52613,1320.668916623228,53248.894493645494,1931,0.012046783625730995,0.012260884491681046,1953.6635031370668
156,270.0453212,1313,52349,1321.430768533803,53029.13649233176,1971,0.012892859942001724,0.01305606783673729,1991.3189200208005
