,x_(nm),baseline_dark,baseline_light,baseline_mirror,baseline_calibration,baseline_dark_smoothed,baseline_light_smoothed,raw_signal,calibrated_signal,calibrated_signal_smoothed,raw_signal_smoothed
0,186.23,1189,1189,0.3621226043733797,inf,1180.2283186456311,3963.1108644715873,1165,-inf,,1314.1225703634136
1,186.775442325,1189,1173,1.18800459154587,-0.07425028697161687,1183.9697759058456,3008.423428858733,1157,2.37600918309174,,1260.5452630979821
2,187.3207793,1189,1170,1.908567993433533,-0.10045094702281752,1187.545058403944,2173.175171878145,1164,2.511273675570438,,1214.038131827477
3,187.86601092499998,1194,1175,1.7279185264672412,-0.09094308034038112,1190.9573657684318,1453.2843045394325,1169,2.273577008509528,,1174.3489612681065
4,188.41113719999998,1194,1168,1.043047789334166,-0.0401172226666987,1194.2098976278132,844.6690378522048,1159,1.4041027933344543,,1141.2255361360799
5,188.956158125,1186,1171,0.840365554154959,-0.05602437027699726,1197.3058536105937,343.2475828260708,1152,1.904828589417907,,1114.4156411476056
6,189.50107369999998,1185,1177,0.8202728553565946,-0.10253410691957432,1200.2484333452774,-55.06184952935837,1152,3.3836255283459526,,1093.6670610188924
7,190.045883925,1205,1196,0.837733819880384,-0.09308153554226489,1203.0408364603697,-354.341048204476,1158,4.37483217048645,,1078.7275804661488
8,190.59058879999998,1212,1207,0.8116271105193998,-0.16232542210387996,1205.6862625843753,-558.67180218967,1161,8.278596527297879,,1069.3449842055836
9,191.135188325,1210,1211,0.8262856362484797,0.8262856362484797,1208.187911345799,-672.1359004753326,1167,-35.53028235868463,,1065.2670569534057
10,191.67968249999998,1215,1222,0.8012221689422371,0.11446030984889101,1210.5489823731457,-698.8151320518523,1181,-3.8916505348622943,,1066.2415834258234
11,192.22407132499998,1211,1215,0.7775424502505143,0.19438561256262857,1212.7726752949202,-642.7912859096227,1181,-5.831568376878857,,1072.0163483390456
12,192.7683548,1202,1204,0.7753865851703869,0.38769329258519347,1214.8621897396272,-508.14615103903134,1174,-10.855412192385417,,1082.3391364092809
13,193.312532925,1199,1199,0.7956261498651602,inf,1216.8207253357718,-298.96151643047097,1182,-inf,,1096.9577323527383
14,193.8566057,1201,1200,0.7908861747409445,-0.7908861747409445,1218.6514817118589,-19.31917107433219,1192,7.117975572668501,,1115.619920885626
15,194.400573125,1205,1203,0.7942231778648126,-0.3971115889324063,1220.357658496393,326.69909603899714,1186,7.545120189715719,,1138.073486724153
16,194.9444352,1223,1213,0.7947581770897779,-0.0794758177089778,1221.9424553178792,735.0114959191246,1186,2.9406052552321786,,1164.066214584528
17,195.488191925,1246,1232,0.7914877943554887,-0.05653484245396347,1223.4090718048224,1201.5362395756579,1199,2.657137595336283,,1193.3458891829596
18,196.0318433,1256,1237,0.7911116722494277,-0.0416374564341804,1224.7607075857272,1722.1915380182095,1209,1.956960452406479,,1225.6602952356563
19,196.575389325,1242,1216,0.7900325230816138,-0.03038586627236976,1226.0005622890988,2292.895602256388,1203,1.1850487846224207,,1260.7572174588274
20,197.11883,1226,1209,0.798472358442206,-0.04696896226130624,1227.1318355434416,2909.5666432998,1193,1.5499757546231059,,1298.384440568681
21,197.662165325,1234,1224,0.7981102791346143,-0.07981102791346142,1228.1577269772606,3568.122872158062,1200,2.7135749490576884,,1338.2897492814257
22,198.2053953,1229,1242,0.8040599544843242,0.0618507657295634,1229.0814362190608,4264.4824998407785,1207,-1.3607168460503947,,1380.2209283132706
23,198.74851992499998,1223,1241,0.8074165803696804,0.044856476687204466,1229.906162897347,4994.563737357552,1190,-1.4802637306777473,,1423.9257623804242
24,199.2915392,1235,1240,0.8060625325032217,0.16121250650064434,1230.6351066406241,5754.284795718009,1193,-6.770925273027062,,1469.1520361990954
25,199.83445312499998,1255,1255,0.8122546130835153,inf,1231.2714670773735,6539.563885931606,1225,-inf,,1515.647534485463
26,200.3772617,1243,2227,0.8144257223941842,0.0008276684170672603,1231.9643027021893,7239.187818523497,1288,0.03724507876802671,-inf,1556.509116854259
27,200.919964925,1214,6278,0.8150182986479615,0.000160943581881509,1232.353937801512,7954.532764048864,1514,0.048283074564452695,-inf,1596.976737864927
28,201.4625628,1208,10932,0.8232603193402961,8.46627230913509e-05,1232.410881333642,8686.020113705694,1767,0.047326462208065155,-inf,1638.5257650229587
29,202.005055325,1218,12886,0.8194894939197722,7.023392988685055e-05,1232.7569140863654,9434.64504292265,1880,0.04649486158509506,-inf,1681.8210831502088
30,202.5474425,1228,13754,0.8269202298982968,6.601630447854837e-05,1233.0963555233177,10196.155179052557,1942,0.04713564139768354,-inf,1726.0115291399247
31,203.089724325,1233,14394,0.8298864771900701,6.305649093458477e-05,1232.8183197807189,10968.09726154592,1990,0.04773376363748067,-inf,1769.9850959251285
32,203.63190079999998,1232,15030,0.8293789756785952,6.010863717050263e-05,1232.1638768714797,11755.129244150265,2029,0.047906583824890596,-inf,1813.9380959930795
33,204.173971925,1228,15541,0.8303112569560028,5.801098700174686e-05,1232.3401889057275,12556.095540102591,2049,0.047627020328434175,,1858.3859204058624
34,204.71593769999998,1234,15963,0.832804584655424,5.6541828002948194e-05,1232.9117986817132,13359.941153819764,2067,0.04709934272645585,,1903.1091077940246
35,205.257798125,1247,16292,0.8371769300637781,5.564486075531925e-05,1233.3267571179179,14161.034360913904,2077,0.04618523442691498,,1947.7485560261464
36,205.7995532,1251,16664,0.8381556767340916,5.437978827834242e-05,1233.6846814197143,14953.504835896336,2090,0.04562464236552929,,1992.0568529298134
37,206.34120292499998,1249,17236,0.840625124319978,5.258179297679227e-05,1233.7637545584034,15737.419443248698,2119,0.045746159889809276,,2035.3674375410153
38,206.88274729999998,1240,17906,0.8415937915656597,5.049764739983558e-05,1233.172959749914,16513.20786427747,2150,0.045952859133850374,,2077.2031756098268
39,207.424186325,1230,18310,0.8431564976534377,4.9365134523035e-05,1231.890846904776,17270.52904935526,2167,0.04625513104808379,-inf,2117.715033183044
40,207.96552,1217,18614,0.844165982526256,4.8523652499066276e-05,1230.6588597702998,18006.086525175764,2182,0.04682532466159896,-inf,2157.0880654148036
41,208.506748325,1220,18983,0.8476484869242688,4.771989455183633e-05,1229.7213753425663,18723.231964483548,2192,0.04638373750438491,-inf,2194.4323314230933
42,209.0478713,1237,19390,0.8491768105118729,4.677886908565377e-05,1229.2593716731742,19419.237015560564,2213,0.04565617622759808,-inf,2230.0269088767154
43,209.588888925,1233,19920,0.8502736512177026,4.5500810789195834e-05,1229.5651770141783,20088.3653989894,2246,0.04609232132945538,-inf,2264.4284581756797
44,210.12980119999997,1214,20356,0.8513731200582484,4.447670672125422e-05,1230.4559106661297,20727.656617363533,2264,0.046700542057316934,-inf,2297.2752497224865
45,210.670608125,1217,20810,0.8534308197221572,4.355794517032395e-05,1231.2172189630332,21322.663412534417,2292,0.046824791058098246,inf,2327.777050442774
46,211.2113097,1222,21207,0.8557212941711507,4.2818178342314274e-05,1231.4616639108237,21871.230129787346,2317,0.04688590528483413,inf,2355.3397358943125
47,211.751905925,1227,21423,0.8575135521308375,4.2459573783463926e-05,1231.914630002921,22371.656889170332,2324,0.04657815244045993,inf,2379.3877777525645
48,212.29239679999998,1235,21762,0.8580327959771828,4.180020441258746e-05,1232.5294344152521,22813.517429612915,2326,0.045604023014132924,inf,2399.913384221567
49,212.83278232499998,1233,22218,0.8587529108532552,4.092222591628569e-05,1233.025617794264,23201.829192053734,2352,0.04579197080032369,inf,2416.9934539853216
50,213.37306249999997,1236,22689,0.8598387128136875,4.00801152665682e-05,1233.7936306597876,23538.323586037735,2375,0.04565125128862118,inf,2430.9619243923516
51,213.91323732499998,1231,23202,0.8611437003932625,3.9194561030142575e-05,1234.5023896350756,23813.916849758312,2412,0.046288776576598384,0.04617898751745615,2441.9800901492204
52,214.45330679999998,1237,23849,0.8624756676121401,3.8142387564662134e-05,1234.9122063919672,24061.375070782567,2477,0.047296560580181043,0.04584693291653036,2451.2640603410705
53,214.993270925,1245,24440,0.8630074298534857,3.720661478135312e-05,1234.2992366757787,24385.334956623694,2506,0.046917541239286285,0.04579115876052385,2463.4316972071374
54,215.5331297,1237,24933,0.8629495266956824,3.641751885110071e-05,1233.0512355885512,24820.64413689957,2504,0.046140996384344594,0.04571851290447411,2481.411991211531
55,216.07288312499998,1233,25477,0.8648478670709356,3.567265579404948e-05,1232.919771682234,25295.765317447247,2505,0.04537561817003094,0.04563304511551768,2503.0216539445487
56,216.61253119999998,1241,26035,0.8650803831098881,3.489071481446673e-05,1234.07812181474,25777.167002649618,2538,0.04525325711436335,0.04555834210044498,2526.0069763754072
57,217.152073925,1248,26332,0.8652291434094919,3.449326835470786e-05,1235.6905932183959,26266.822374232204,2566,0.045462127691504955,0.045508890861344735,2550.33828625785
58,217.69151129999997,1236,26540,0.8680312398394996,3.4304111596565744e-05,1236.9800221975345,26768.56549412166,2576,0.0459675095393981,0.04546884090901033,2575.224852204983
59,218.230843325,1226,26987,0.868212549145114,3.3702594974772483e-05,1238.0915989036887,27283.723663049605,2582,0.04570071878579149,0.04541272654271069,2599.9960814513984
60,218.77006999999998,1225,27517,0.868144571802742,3.301934321477035e-05,1239.1549751976024,27809.013159980444,2595,0.04523650020423538,0.045345052188879374,2625.018618768211
61,219.30919132499997,1228,28168,0.8681762475955156,3.2226289814235916e-05,1240.4019796597647,28335.600896962012,2619,0.04482676913160216,0.04526801471906305,2650.477632562408
62,219.84820729999998,1230,28709,0.868951283960652,3.162237650426333e-05,1242.078869283539,28862.833699516992,2647,0.04480890750654114,0.045174260481578674,2676.1265034315097
63,220.38711792499998,1240,29111,0.8691522224557424,3.11848237399355e-05,1243.8551722575583,29399.789236448734,2678,0.04484377653802725,0.045080409263568474,2702.352239008759
64,220.9259232,1258,29756,0.8692686507714266,3.050279496004725e-05,1245.4106321773752,29954.75537384708,2714,0.044412069461828796,0.0449867082441482,2729.2644680513195
65,221.464623125,1257,30428,0.8701622824311823,2.9829703555969365e-05,1246.722643774467,30521.107273097336,2742,0.044297109780614505,0.044890589997234394,2756.187274909911
66,222.0032177,1249,30874,0.86932404321908,2.934427150106599e-05,1247.2537996330368,31090.592697455744,2779,0.044896735396630964,0.04481620830395552,2783.0600919612593
67,222.54170692499997,1250,31276,0.8705973257298546,2.8994782046554804e-05,1247.6420983487499,31659.198758748178,2806,0.045115880864439274,0.04473504858981248,2809.6436385874567
68,223.0800908,1250,31738,0.8704844215444587,2.855170629573795e-05,1248.5457881265474,32228.58574373084,2820,0.044826178884308586,0.04462939030726611,2836.182359736293
69,223.61836932499997,1246,32139,0.8703398065724872,2.817271895162293e-05,1249.0817006047462,32800.27321117063,2836,0.04479462313308046,0.04454298338429139,2863.1199121157347
70,224.1565425,1241,32876,0.8697053263836744,2.7491870598504012e-05,1248.895580873835,33370.666221204825,2854,0.04434438727538697,0.044472189094235205,2889.5388344016305
71,224.69461032499999,1244,33597,0.8700422735223692,2.6892166832206262e-05,1248.4467145348467,33939.54644499243,2878,0.043941800603825035,0.04440349518782934,2915.5446329474626
72,225.23257279999999,1246,34288,0.8700397124616915,2.6331327173345788e-05,1247.7553511970586,34503.83215927814,2933,0.04442094894143434,0.044351397146169785,2941.6390631723816
73,225.77042992499997,1236,35246,0.8700678242154535,2.5582705798748998e-05,1247.0985752791444,35054.66028675554,2987,0.0447953178536095,0.04431086694280503,2967.682280459297
74,226.30818169999998,1232,35915,0.8699872642519537,2.5083968060777722e-05,1246.4598065641112,35593.06532424223,3007,0.044524043307880456,0.04425897355344917,2993.240299893485
75,226.84582812499997,1233,36369,0.8700242014773532,2.476161775607221e-05,1245.448435978141,36126.720627873096,3024,0.04434805740112533,0.044211649438480556,3018.3405739653767
76,227.3833692,1259,36983,0.8696880407569096,2.4344643398189164e-05,1244.235452671611,36650.634351853245,3059,0.043820358116740496,0.04417113781290466,3043.1494484585705
77,227.92080492499997,1265,37364,0.87010037851645,2.410317123788609e-05,1242.9234184239497,37158.94579718609,3085,0.043867771652952685,0.0441572029894519,3067.8782531880092
78,228.45813529999998,1276,37558,0.8693067287349536,2.395972462198759e-05,1241.8805861967192,37654.83014337739,3140,0.044660926695384864,0.044183858224020295,3093.358399963699
79,228.99536032499998,1296,37832,0.8691277262341458,2.378825613734798e-05,1241.1311920994576,38131.871186209595,3165,0.04446025072070338,0.044223224037179536,3118.8014677568544
80,229.53248,1272,38346,0.86926662631248,2.344679900502994e-05,1240.4344152755202,38581.81673424012,3150,0.044033088531446225,0.04425023552396287,3142.6962785113437
81,230.069494325,1238,39116,0.8686441253792921,2.2932681909797038e-05,1239.4679607691896,39014.766608529455,3168,0.04426007608590828,0.04426095663659851,3165.157670615355
82,230.60640329999998,1224,39674,0.868302707705708,2.258264519390658e-05,1238.6652245803743,39425.43201431441,3177,0.04410390606369955,0.044287024317338934,3187.350766721722
83,231.143206925,1230,40128,0.8687016218294412,2.2332809445972576e-05,1238.1244422296982,39790.3246506142,3207,0.04415196427468778,0.04433974830415738,3208.434822985737
84,231.67990519999998,1228,40403,0.8683284847277679,2.216537293497812e-05,1237.2863032005018,40107.13357040853,3244,0.044685391836915896,0.044409521832792086,3227.1489954471735
85,232.216498125,1232,40652,0.8683608504247778,2.2028433547051697e-05,1235.9151056648839,40392.307775939786,3267,0.0448278622682502,0.04449568828042587,3244.4899091711536
86,232.75298569999998,1238,41055,0.868249886800152,2.1806009664217595e-05,1234.1099005639758,40648.630750412594,3272,0.04435342365701859,0.044603779933747166,3261.13776076462
87,233.289367925,1228,41483,0.867778574191436,2.15570382360312e-05,1232.2381027882616,40872.01596865083,3283,0.044299713575044114,0.04472793410481125,3276.939341774383
88,233.8256448,1222,41776,0.8676471171202086,2.1394859129067626e-05,1230.5942829961937,41052.50442818558,3294,0.044330148115428125,0.044860496118060596,3291.0318013997417
89,234.36181632499998,1218,41856,0.8677489292852631,2.135314063894048e-05,1229.4579492173996,41179.815329904755,3302,0.04449994509155196,0.04499585153937167,3302.815533760611
90,234.89788249999998,1211,41820,0.8672589311593729,2.135632325739055e-05,1228.5884164986514,41276.16118145292,3317,0.044976416780064504,0.04512880434706569,3313.3274139843984
91,235.433843325,1217,41852,0.8668004592010585,2.133137588780752e-05,1227.6937642981486,41351.80679063999,3329,0.04505186587504948,0.04527015660543781,3323.166708192647
92,235.9696988,1217,41989,0.8665578153052318,2.1253748045355434e-05,1226.59253890233,41390.3588982755,3340,0.045121707100289586,0.04544522033435169,3332.206867652658
93,236.505448925,1210,42024,0.8666098942893835,2.1233152699793783e-05,1225.3336881922346,41386.0834673484,3350,0.0454389467775587,0.04564373363258449,3339.6677387935665
94,237.04109369999998,1213,42055,0.8664654382940954,2.121505896611565e-05,1224.1111010441678,41346.15058098632,3355,0.04544265630541972,0.04583862332378515,3345.1966748963096
95,237.576633125,1211,42040,0.8658853313998153,2.1207605657738746e-05,1222.9800901492438,41266.91517361583,3375,0.045893258643346646,0.046035049421022135,3348.7994065550106
96,238.11206719999998,1214,41962,0.8659634438688039,2.1251679686581032e-05,1221.955083920337,41154.179233956944,3402,0.0464986751542393,0.04622362821364959,3350.429590704142
97,238.64739592499998,1220,41832,0.8653764850454776,2.130839370248886e-05,1220.9728419669523,41019.30274751332,3409,0.04664407381474812,0.04642689651010731,3351.604113343386
98,239.1826193,1218,41697,0.865240351462597,2.137504265082134e-05,1220.4744841332524,40874.84595347494,3397,0.0465762179361397,0.046653527337072564,3353.7978436657045
99,239.71773732499997,1221,41518,0.8654717432609225,2.147732444750037e-05,1219.7301411130254,40738.9585721073,3385,0.0464769301043908,0.04689588987643185,3357.001404335255
100,240.25275,1229,41060,0.8654328986505,2.1727621667808994e-05,1218.9582550000898,40605.73211171183,3390,0.04695339042413524,0.04713025807511665,3359.9694670320314
101,240.787657325,1238,40647,0.8649750843904328,2.1948668689650405e-05,1218.5217785227064,40470.13300414428,3383,0.04707989433930012,0.0473570516667805,3362.7787492354787
102,241.3224593,1236,40365,0.8650023747478218,2.2106426812538574e-05,1219.0654827968688,40348.5178599734,3380,0.0473961790860827,0.04756664993031165,3366.589843484499
103,241.85715592499997,1232,40031,0.864426750181391,2.2279614169988685e-05,1220.0040318013764,40233.69847561589,3379,0.04783433162296571,0.04778021564902239,3371.408774830622
104,242.3917472,1230,39800,0.8640504083213235,2.2402136591167318e-05,1220.8485129900782,40114.72703798423,3370,0.04794057230509806,0.048036189770825945,3378.073886158172
105,242.92623312499998,1219,39707,0.8638615542876957,2.244495828018332e-05,1222.2368796575,40002.55869895051,3377,0.048436219968635605,0.04828389438980902,3385.4321955196524
106,243.46061369999998,1221,39258,0.8647030136247108,2.2733207498612162e-05,1223.667489637341,39916.13051258163,3377,0.04901279536700782,0.04849827271630868,3392.6783619107373
107,243.994888925,1221,38928,0.863747888775786,2.2906831325106374e-05,1224.156356882352,39858.79510294608,3365,0.04911224636102807,0.04871506321243591,3400.7798364628215
108,244.52905879999997,1218,39102,0.8628771528607923,2.2776822744715242e-05,1224.2833133253068,39821.11128224799,3376,0.049152383483095495,0.04892731419375174,3409.6147138099873
109,245.063123325,1214,39248,0.8633129275796555,2.269845211073396e-05,1224.824208928831,39808.24179483038,3414,0.04993659464361471,0.049130926666385244,3419.8308681962694
110,245.59708249999997,1218,39036,0.8623491049005171,2.280260999789828e-05,1225.0807492808208,39828.96745113063,3413,0.050051728945386724,0.04934163839421859,3432.052209563005
111,246.130936325,1228,38769,0.862505803534046,2.2975035388882715e-05,1225.3054202812964,39896.25180638217,3389,0.049649051475375544,0.049547499754860155,3446.7238895557566
112,246.66468479999997,1231,38764,0.8631762817630669,2.299779611976306e-05,1225.942490203605,40017.67224625622,3375,0.049307274880772,0.04971794717840224,3463.1033771998705
113,247.19832792499997,1223,39049,0.8629529675416884,2.2813751587312653e-05,1226.5047452943204,40191.942331648876,3394,0.04952865469605577,0.04987293962779436,3481.757389748286
114,247.7318657,1213,39642,0.8621360146885437,2.2434515982423267e-05,1226.6814423882527,40415.70298307925,3443,0.05002897064080389,0.05001755856556656,3502.455548256972
115,248.265298125,1222,39823,0.8624878814902607,2.234366678299165e-05,1226.7785000792535,40684.49269519051,3470,0.05022856292816523,0.05014858430158975,3525.0408163264624
116,248.79862519999998,1225,39745,0.862427427307537,2.238908170580314e-05,1226.7126548732465,40984.46710004678,3472,0.05030826659293965,0.050274212468287414,3549.026863575551
117,249.33184692499998,1227,40057,0.8621956715984717,2.2204369600784744e-05,1226.357176832974,41305.74925819304,3490,0.05024848840657588,0.050382283170616465,3573.2178305283696
118,249.8649633,1237,40617,0.8614594306460737,2.187555689807196e-05,1226.1591655529903,41668.93388298637,3531,0.050182527524177074,0.05046748947013776,3598.7828263380134
119,250.397974325,1241,41110,0.861591555373828,2.1610563479741855e-05,1225.8786155971588,42079.45181091224,3578,0.05050388685215672,0.050532947176168075,3625.8253414572687
120,250.93087999999997,1239,41793,0.861950076569216,2.1254378768289587e-05,1225.1146345330349,42536.40091508221,3634,0.050904237150053565,0.050577043491207056,3653.967428480756
