,x_(nm),baseline_dark,baseline_light,baseline_dark_smoothed,baseline_light_smoothed,raw_signal,calibrated_signal,calibrated_signal_smoothed,raw_signal_smoothed
0,186.23,1302,1308,1287.7735374749793,4439.485386607483,1286,-2.6666666666666665,,1279.0343682707708
1,186.775442325,1296,1308,1293.486893005871,3357.7296792737493,1285,-0.9166666666666666,,1283.1054744490914
2,187.3207793,1293,1314,1298.7645796973839,2412.8921117358473,1285,-0.38095238095238093,,1287.1571232072886
3,187.86601092499998,1292,1307,1303.6225872448636,1600.130237058544,1281,-0.7333333333333333,,1291.1864805622288
4,188.41113719999998,1303,1306,1308.076905343656,914.6016083066065,1294,-3.0,,1295.1907125307785
5,188.956158125,1311,1311,1312.1435236891075,351.46377854480215,1301,-inf,,1299.1669851298036
6,189.50107369999998,1316,1309,1315.838431976564,-94.12569916210123,1303,1.8571428571428572,,1303.112464376171
7,190.045883925,1331,1317,1319.177619901371,-427.00927174933804,1316,1.0714285714285714,,1307.0243162867466
8,190.59058879999998,1331,1329,1322.177077158875,-652.0293861521386,1315,8.0,,1310.899706878397
9,191.135188325,1322,1332,1324.8527934444216,-774.0284893057378,1314,-0.8,,1314.7358021679884
10,191.67968249999998,1325,1333,1327.220758453357,-797.8490281453669,1321,-0.5,,1318.5297681723873
11,192.22407132499998,1326,1326,1329.296961881027,-728.3334496062598,1317,-inf,,1322.27877090846
12,192.7683548,1315,1326,1331.0973934227777,-570.3242006236487,1317,0.18181818181818182,,1325.9799763930728
13,193.312532925,1307,1332,1332.638042773955,-328.66372813276575,1316,0.36,,1329.6305506430922
14,193.8566057,1321,1338,1333.934899629905,-8.194479068846704,1330,0.5294117647058824,,1333.2276596753843
15,194.400573125,1336,1355,1335.0039536859733,386.24109963288083,1338,0.10526315789473684,,1336.7684695068158
16,194.9444352,1353,1371,1335.8611946375063,849.800561037182,1345,-0.4444444444444444,,1340.2501461542527
17,195.488191925,1358,1378,1336.5226121798498,1377.6414582088223,1354,-0.2,,1343.6698556345614
18,196.0318433,1347,1380,1337.0041960083497,1964.921344212571,1359,0.36363636363636365,,1347.0247639646084
19,196.575389325,1341,1362,1337.3219358183521,2606.797772113191,1359,0.8571428571428571,,1350.3120371612602
20,197.11883,1336,1357,1337.4918213052028,3298.428294975459,1350,0.6666666666666666,,1353.5288412413827
21,197.662165325,1348,1368,1337.5298421642478,4034.970465864132,1356,0.4,,1356.6723422218424
22,198.2053953,1351,1361,1337.4519880908333,4811.5818378439835,1355,0.4,,1359.739706119506
23,198.74851992499998,1334,1358,1337.2742487803048,5623.419963979779,1345,0.4583333333333333,,1362.7280989512396
24,199.2915392,1329,1365,1337.0126139280087,6465.642397336287,1342,0.3611111111111111,,1365.6346867339093
25,199.83445312499998,1346,1375,1336.6830732292658,7333.4066909781395,1366,0.6896551724137931,,1368.4566354843562
26,200.3772617,1348,2478,1337.1266619855235,8092.79005186965,1367,0.016814159292035398,,1371.385852454163
27,200.919964925,1323,7009,1337.3475276902957,8867.426396973713,1369,0.00809004572634541,,1373.9612448752823
28,201.4625628,1319,12319,1336.9281297424375,9659.048993181996,1391,0.006545454545454545,,1376.4233391469534
29,202.005055325,1321,14478,1336.7821241703973,10465.663050125511,1392,0.0053963669529528005,,1378.757570952883
30,202.5474425,1329,15408,1336.8435751658897,11282.372533919011,1391,0.004403721855245401,,1381.0939545629308
31,203.089724325,1330,16134,1336.3616389951947,12106.830120727305,1395,0.004390705214806809,inf,1383.0400462071354
32,203.63190079999998,1334,16831,1335.7004915173363,12940.657931096719,1403,0.004452474672517261,inf,1384.5772044666658
33,204.173971925,1336,17326,1336.3090670230101,13781.890914856243,1398,0.0038774233896185116,inf,1386.3227479670848
34,204.71593769999998,1336,17673,1337.2828603139112,14620.173254207062,1389,0.0032441696761951397,inf,1388.3429975763622
35,205.257798125,1338,17927,1337.344084803707,15448.421459149402,1396,0.003496292724094279,inf,1390.2893836779729
36,205.7995532,1341,18285,1337.2587601077912,16261.86996307926,1392,0.0030099150141643057,inf,1392.1521665269613
37,206.34120292499998,1344,18870,1337.3912659403127,17062.165281206493,1395,0.002909962341663814,0.051799035890837314,1393.7719993657572
38,206.88274729999998,1335,19487,1337.3447416702277,17849.640739314254,1400,0.003580872631115029,0.03908964042574716,1395.2441278397887
39,207.424186325,1330,19783,1336.8661577838427,18613.58495096116,1390,0.003251503820516989,0.03216311564517438,1396.4666923372856
40,207.96552,1329,19984,1336.6251104215014,19349.17008312722,1380,0.002733851514339319,0.03184590239565088,1397.9368049106165
41,208.506748325,1333,20293,1336.8468594984906,20059.23726471682,1379,0.002426160337552743,0.019983995472719337,1399.2839248906841
42,209.0478713,1339,20693,1337.5891413168786,20740.619266574155,1394,0.0028417898108918055,-0.009912533453166778,1400.6052685224763
43,209.588888925,1338,21162,1338.3285918140587,21387.698090556565,1399,0.0030770782889426957,-0.03537229946484083,1401.9672246256723
44,210.12980119999997,1335,21507,1339.1395728102307,21996.717207637354,1399,0.003172714653975808,-0.04469986796230528,1403.3407551699656
45,210.670608125,1336,21905,1340.14831593012,22552.923373122398,1404,0.003305945840828431,-0.036817767326088144,1405.004031801373
46,211.2113097,1338,22263,1341.0713039932698,23055.691340686775,1404,0.003154121863799283,-0.030863850331822606,1406.0025595143447
47,211.751905925,1341,22426,1342.2220208837994,23503.11166730798,1404,0.002987906094379891,-0.030254982402865324,1406.6256766857416
48,212.29239679999998,1350,22703,1343.5315182676588,23884.010917574113,1412,0.0029035732683932,-0.027796114103718492,1406.863032005228
49,212.83278232499998,1355,23086,1344.4146639787732,24203.650614962502,1411,0.0025769637844553863,-0.021498737953554198,1406.7286008742851
50,213.37306249999997,1356,23512,1344.953792837864,24463.52454189176,1404,0.002166456038996209,-0.015960918677839536,1406.318897370242
51,213.91323732499998,1343,24032,1345.2903803030388,24656.6241817477,1404,0.0026885274802767862,0.0021262125867973747,1405.5463317402161
52,214.45330679999998,1340,24608,1345.4657863145,24818.221930281074,1409,0.00296544610624033,0.0023632381277096863,1404.4123536206669
53,214.993270925,1354,25053,1344.4736460621727,25061.37710933382,1406,0.0021941854086670325,0.0023988792129320782,1403.0099662506243
54,215.5331297,1338,25453,1343.2493601213814,25431.719903055076,1397,0.002446609993779805,0.0024094961189646785,1402.1314412557208
55,216.07288312499998,1335,25924,1343.1224716301358,25849.504382884734,1400,0.0026434584570336327,0.002392131483209471,1402.087091440323
56,216.61253119999998,1358,26383,1343.9170762644426,26280.53826813694,1413,0.002197802197802198,0.0023500344141609026,1402.5756415773587
57,217.152073925,1370,26660,1345.0385512695386,26726.999048675563,1424,0.002135231316725979,0.0023176225916637858,1403.6446578631183
58,217.69151129999997,1343,26867,1345.9177104803928,27192.225622323884,1427,0.003291020216267043,0.002297756627856105,1404.7837776619813
59,218.230843325,1329,27297,1346.872681147905,27676.47321570084,1413,0.003234750462107209,0.002253046211830215,1405.316881469542
60,218.77006999999998,1349,27857,1347.8226686900916,28173.651294479518,1408,0.002225743171872642,0.0021872808350717554,1405.38200185732
61,219.30919132499997,1357,28490,1348.2200955853784,28674.014994676567,1411,0.0019901964397597022,0.0021472293624541427,1405.6392217263997
62,219.84820729999998,1351,28958,1348.4725814853985,29180.454483679707,1408,0.0020646937370956643,0.0021081053798353466,1406.0391401843488
63,220.38711792499998,1344,29287,1348.9823552062078,29705.033386939114,1404,0.002147228286153956,0.0020605127071093533,1406.43624997166
64,220.9259232,1346,29859,1349.156900496022,30255.337991799912,1401,0.0019289446918949252,0.0020326416317752866,1406.8402681827176
65,221.464623125,1348,30495,1349.5038166209622,30819.996172053136,1396,0.0016468247160942807,0.001995405707419576,1407.1916011687424
66,222.0032177,1346,30929,1349.6379079933602,31389.490883145107,1399,0.001791569482473042,0.0019434583759883855,1407.0299214024965
67,222.54170692499997,1347,31327,1349.6621894040375,31960.163559762917,1399,0.0017344896597731821,0.001889615454235615,1406.844549140384
68,223.0800908,1357,31760,1349.703232236265,32532.099685156456,1400,0.0014143341117652864,0.0018569474484882058,1407.219416068287
69,223.61836932499997,1348,32165,1349.416340120928,33105.08210831439,1399,0.0016549307200571114,0.0018347730192160223,1407.4909963985326
70,224.1565425,1336,32926,1348.8776642732305,33672.36424381009,1382,0.0014561570117125674,0.0018255139148105983,1407.8468594984895
71,224.69461032499999,1332,33619,1348.0820856644289,34231.597929737276,1386,0.0016724997677083657,0.0018302164693877795,1408.2814559785909
72,225.23257279999999,1335,34278,1347.4837482162418,34777.83560216473,1396,0.0018516832103937103,0.0018273208699405787,1408.6307730639157
73,225.77042992499997,1333,35200,1347.223787628233,35303.00095132325,1401,0.0020078542534030176,0.0018070736881721557,1408.736573874806
74,226.30818169999998,1329,35840,1347.1326417359137,35802.02715803234,1395,0.0019124337167859523,0.0017897808847648546,1409.0528664295637
75,226.84582812499997,1332,36281,1347.1953158621682,36275.78148995378,1390,0.0016595610747088614,0.0017578332390429823,1409.1230831955154
76,227.3833692,1356,36789,1347.1770595030205,36720.701035130325,1419,0.001778003556007112,0.0017194815442740533,1408.979637137847
77,227.92080492499997,1369,37114,1346.497451810887,37131.01508527868,1431,0.0017345083228423556,0.001701776379077394,1408.6264921062493
78,228.45813529999998,1390,37381,1345.8619447778854,37501.965140772576,1443,0.0014725903698146758,0.001673894273141989,1408.001925298394
79,228.99536032499998,1400,37665,1345.7482615687525,37823.00115517833,1452,0.0014338894250654902,0.0016282244279919589,1407.452377177259
80,229.53248,1368,38106,1345.0322997123121,38085.74343699671,1430,0.0016876258914475474,0.0016231060409049379,1407.2116242723237
81,230.069494325,1343,38698,1344.1451221997975,38294.88876305166,1412,0.0018471422834961853,0.0016392419199237845,1407.2466420530207
82,230.60640329999998,1328,39092,1344.2091100590922,38443.28578223668,1394,0.0017476962186209089,0.001634835339172784,1407.6688260209473
83,231.143206925,1335,39373,1344.7087363246928,38515.83061903933,1397,0.001629948998370051,0.0016281163772921491,1408.3550250288527
84,231.67990519999998,1330,39419,1344.2922149991816,38507.94348682796,1412,0.002152852529601722,0.0016585709099473731,1408.9530227184944
85,232.216498125,1325,39443,1343.4150263878878,38429.491517360926,1419,0.0024660265491368905,0.0017063313439172468,1409.3970871367144
86,232.75298569999998,1342,39615,1342.824616639083,38284.29887426596,1420,0.002037990228098137,0.0017574081807662032,1409.957258375021
87,233.289367925,1349,39713,1342.6467190649587,38070.93089311124,1411,0.0016160984256073402,0.0018180208035840845,1410.9593195768603
88,233.8256448,1343,39551,1342.6141022446457,37781.60388683703,1413,0.0018320770519262982,0.0018852621505882948,1412.1093116491606
89,234.36181632499998,1344,39059,1342.4466465831358,37409.71048041787,1418,0.0019620840514384197,0.0019450657085936928,1412.8274026591498
90,234.89788249999998,1329,38464,1342.2698362363556,36971.802079321584,1409,0.0021543018715497507,0.0019881111653922818,1413.0134770889217
91,235.433843325,1329,37887,1342.1261636729905,36476.68880382272,1413,0.0022977186935828,0.0020210778484047068,1412.8261795283881
92,235.9696988,1331,37345,1342.083195542342,35917.76835262338,1408,0.0021380574221136223,0.0020638126780340884,1412.8054542571474
93,236.505448925,1332,36715,1341.7871978980015,35292.235294116974,1399,0.001893564706214849,0.002120957716162285,1412.617952841487
94,237.04109369999998,1339,35991,1341.154884595322,34606.84085709689,1404,0.0018757936049867252,0.002187207486137653,1412.0129108246801
95,237.576633125,1342,35188,1340.1626084395766,33866.54646764302,1398,0.0016545529752407966,0.0022763840574268474,1411.4323087725388
96,238.11206719999998,1350,34322,1339.0784615732828,33083.53738476459,1397,0.0014254518985806139,0.002360880743814032,1410.4185145756144
97,238.64739592499998,1344,33386,1337.9746993136619,32267.62635620224,1397,0.001654079021284564,0.0024629527804772124,1409.7112278873544
98,239.1826193,1333,32296,1336.8745611451873,31432.426736731824,1403,0.002260762845977457,0.002584659870956589,1409.4657183627899
99,239.71773732499997,1334,31250,1335.7271512378281,30598.845002151218,1403,0.002306458082631368,0.00270225303512767,1409.0710321864326
100,240.25275,1333,30061,1334.7718861129101,29765.217037757928,1411,0.0027151211361737676,0.0027973082909277663,1408.167251806356
101,240.787657325,1337,28824,1334.2743890008576,28935.31912387541,1412,0.0027285625932258885,0.0028842780705618546,1407.3763845160433
102,241.3224593,1347,27697,1334.3042198011026,28125.804593534987,1420,0.0027703984819734346,0.0029872331513415926,1407.613264173567
103,241.85715592499997,1342,26654,1334.7745815306998,27339.205961629414,1438,0.0037926675094816687,0.00308601380945456,1408.1572629051352
104,242.3917472,1338,25729,1336.0777820561934,26577.313189426204,1438,0.004099872903939978,0.003171598762955318,1409.054044259186
105,242.92623312499998,1342,24954,1337.4177218056775,25853.874311988453,1421,0.0033457563950533625,0.003261280729458807,1410.1663231329999
106,243.46061369999998,1343,24012,1337.9284695009824,25191.0855738517,1414,0.0031320305262693545,0.003372498261696674,1411.3790346326937
107,243.994888925,1333,23238,1337.9851865274154,24596.9567147609,1414,0.003697785893631591,0.003482353007476642,1412.2310584610932
108,244.52905879999997,1332,22768,1337.6064463521,24069.90985073229,1419,0.004058593021086024,0.003576262548014707,1412.1375342589592
109,245.063123325,1337,22376,1337.3629300776659,23620.853949126373,1431,0.004467892960692048,0.003669139268557546,1412.3141860517524
110,245.59708249999997,1336,21883,1337.1826768442972,23260.18276744616,1428,0.00447753930014114,0.0037735702999141946,1413.223674375383
111,246.130936325,1345,21437,1336.8833722167856,23004.839769869774,1422,0.003832371092972327,0.0038832831436660517,1414.5398989784321
112,246.66468479999997,1341,21213,1336.8854787197643,22867.693424539186,1411,0.0035225442834138487,0.003980322246461269,1416.0809304853747
113,247.19832792499997,1331,21231,1337.0203855126697,22851.517542865768,1402,0.0035678391959798996,0.00406475642464103,1417.7125869215338
114,247.7318657,1327,21499,1337.0925728781822,22951.852386237075,1411,0.004164187983343248,0.004151306717058242,1419.7735396044939
115,248.265298125,1327,21637,1337.1777616706804,23163.864526942416,1426,0.0048744460856720824,0.0042412630549533495,1422.4469183899705
116,248.79862519999998,1326,21746,1337.1489501460703,23480.292894515846,1435,0.005337904015670911,0.004335130299444861,1425.5497972773744
117,249.33184692499998,1318,22093,1337.0174182880444,23890.134725587894,1434,0.005583634175691937,0.004439558974977004,1429.2912863258239
118,249.8649633,1325,22746,1336.608937914763,24408.153299055004,1442,0.005461929881891601,0.004543907849723597,1433.294480056146
119,250.397974325,1348,23489,1336.2200955853782,25039.994065550265,1462,0.005148818933200849,0.004635959515715211,1437.4465559808552
120,250.93087999999997,1356,24337,1335.805182450313,25784.468300527264,1467,0.004830077020147078,0.0047341860035782805,1442.6697093931634
121,251.46368032499998,1350,25499,1335.4270538403784,26635.341434686576,1470,0.0049691498612779,0.004828271285034181,1448.659584588525
122,251.99637529999998,1347,26690,1335.5803075947106,27568.35613490627,1467,0.004735035315471728,0.004913610063867724,1455.4247434822705
123,252.52896492499997,1350,27796,1335.632970169174,28573.99707807597,1465,0.00434848370263934,0.005004857568707749,1462.8171646016617
124,253.06144919999997,1350,28875,1335.3894538947397,29647.967858841086,1481,0.004759309718437784,0.005122299773046875,1471.5664001449354
125,253.593828125,1338,30161,1335.3070058211708,30793.532220434758,1501,0.005655205911945321,0.00526046390908166,1482.408888083507
126,254.1261017,1321,31529,1335.5907042061854,31999.59217649263,1501,0.005958686440677966,0.005419967444116949,1495.3879136560001
127,254.65826992499998,1324,32786,1335.828353983077,33243.18455684097,1506,0.005784756213845273,0.005594401211396245,1509.7609005866207
128,255.19033279999996,1323,34142,1336.0398423520096,34512.33221590457,1524,0.006124501051220329,0.005788358725446551,1525.6775238396954
129,255.722290325,1320,35750,1336.0448028267656,35804.30650750798,1546,0.006564042985768226,0.006036299094335826,1544.093728057231
130,256.2541425,1338,37283,1336.0525946227292,37114.944687308176,1576,0.006621226874391432,0.006323224923069837,1565.0164216629746
131,256.78588932499997,1344,38571,1336.2783528505486,38428.055607147784,1580,0.006339484782550299,0.006620351017671989,1587.779134295197
132,257.3175308,1339,40113,1336.3090443724402,39720.53740741504,1601,0.00675710527673183,0.006954200096789772,1612.718679924769
133,257.849066925,1339,41924,1335.948922965387,40980.93324877042,1643,0.00749045213748922,0.007343839799413352,1639.7067657251264
134,258.3804977,1341,43642,1335.6139663412278,42211.557679674836,1668,0.00773031370416775,0.007785460405116184,1669.1866180434117
135,258.91182312499996,1333,45081,1335.4806450881983,43412.89848014595,1694,0.008251805796836428,0.008284464091681659,1701.83573806878
136,259.4430432,1329,46131,1335.1063444245367,44569.054066908924,1729,0.008928172849426364,0.008835520093802037,1737.101451901482
137,259.974157925,1334,47054,1335.200774649457,45675.21429703869,1770,0.009536307961504812,0.009415100300965564,1775.3443113093954
138,260.5051673,1338,47957,1335.7139912568543,46732.36578404856,1810,0.010124627297882837,0.010029969606489973,1816.9334526262987
139,261.03607132499997,1336,48858,1335.6903667126971,47725.32650796076,1854,0.010900214637431084,0.01070555533069294,1861.161838320198
140,261.56687,1338,49620,1335.169675417311,48651.48295544539,1901,0.011660660287477736,0.011471278797438304,1908.796892341806
141,262.097563325,1326,50498,1334.586559151937,49505.176606490706,1945,0.012588464980069958,0.01234151155422638,1961.0157874470167
142,262.62815129999996,1326,51770,1333.912342295383,50272.8459308242,2000,0.01336135120133217,0.013312967871525772,2017.2959749937327
143,263.158633925,1335,52563,1332.9709166685286,50962.710888127855,2066,0.014269540095260404,0.014362022742066764,2077.0256857459567
144,263.6890112,1334,52962,1332.1657795193294,51578.92715576698,2139,0.015592314248082436,0.015477020576449453,2140.406215316274
145,264.219283125,1342,53103,1332.2665745543247,52105.77874923454,2202,0.016614825834122215,0.01667562538551871,2207.8953996692594
146,264.7494497,1346,53110,1332.5053568596995,52550.74157964972,2271,0.017869561857661694,0.017954860948448552,2279.2092686130622
147,265.27951092499995,1339,53626,1332.1679086728777,52934.39475412704,2352,0.01937384053397594,0.01933338920681768,2355.4582889759226
148,265.8094668,1339,54174,1332.0918027588136,53252.46014632165,2449,0.021008800984196083,0.020808878004679166,2437.088926136446
149,266.33931732499997,1339,54435,1332.4994450610177,53488.794876440115,2538,0.022581738737381347,0.02236428327752252,2522.1799134747757
150,266.8690625,1334,54259,1333.1551111010185,53634.45384946329,2603,0.023977326405290506,0.024051330594916476,2611.2803914017936
151,267.398702325,1318,53865,1333.618179347185,53706.05610546002,2680,0.025919652882181666,0.025886116829140115,2705.365444290872
152,267.9282368,1320,53729,1333.44974971118,53719.61437405048,2784,0.027934133450361578,0.02784591389518076,2804.629753788254
153,268.457665925,1330,53667,1333.6142834492032,53667.80688124204,2902,0.030036112119533026,0.02992743176844715,2909.1369906452596
154,268.9869897,1333,53331,1333.6114068268562,53548.75614396599,3011,0.03227047194122851,0.032154437526603484,3018.1536161633885
155,269.516208125,1329,52769,1333.1847380461363,53379.96584293992,3112,0.034661741835147745,0.034499338910292325,3131.035697297727
