,x_(nm),baseline_dark,baseline_light,baseline_dark_smoothed,baseline_light_smoothed,raw_signal,calibrated_signal,calibrated_signal_smoothed,raw_signal_smoothed
0,186.23,1055,1071,1032.0825135730788,4109.536466287867,1057,0.125,,1038.337168894327
1,186.775442325,1053,1079,1040.0399151307024,3063.6378142677922,1052,-0.038461538461538464,,1042.242315123114
2,187.3207793,1050,1080,1047.46673994868,2149.9654817837563,1046,-0.13333333333333333,,1046.2132154522828
3,187.86601092499998,1046,1082,1054.3794520743302,1363.857957500053,1044,-0.05555555555555555,,1050.2419043508387
4,188.41113719999998,1050,1081,1060.7945155549717,700.6537300809755,1047,-0.0967741935483871,,1054.3204162877857
5,188.956158125,1051,1078,1066.728394437923,155.69128819081743,1049,-0.07407407407407407,,1058.4407857321287
6,189.50107369999998,1059,1080,1072.197552770503,-275.690879506129,1047,-0.5714285714285714,,1062.5950471528718
7,190.045883925,1075,1103,1077.2184546000303,-598.1542843455691,1059,-0.5714285714285714,,1066.7752350190199
8,190.59058879999998,1083,1117,1081.8075639738233,-816.3604376632102,1072,-0.3235294117647059,,1070.973383799577
9,191.135188325,1083,1112,1085.9813449392009,-934.9708507947598,1081,-0.06896551724137931,,1075.181527963548
10,191.67968249999998,1095,1114,1089.7562615434817,-958.6470350759228,1094,-0.05263157894736842,,1079.3917019799374
11,192.22407132499998,1089,1098,1093.1487778339845,-892.0505018424055,1089,0.0,,1083.5959403177496
12,192.7683548,1082,1087,1096.1753578580276,-739.8427624299184,1072,-2.0,,1087.786277445989
13,193.312532925,1087,1095,1098.85246566293,-506.6853281741651,1062,-3.125,,1091.9547478336603
14,193.8566057,1092,1105,1101.19656529601,-197.23971041085133,1086,-0.46153846153846156,,1096.093385949768
15,194.400573125,1094,1123,1103.2241208045866,183.83257952431268,1110,0.5517241379310345,,1100.1942262633163
16,194.9444352,1101,1134,1104.9515962359783,631.870030295624,1110,0.2727272727272727,,1104.2493032433101
17,195.488191925,1128,1132,1106.3954556375038,1142.2111305673748,1122,-1.5,,1108.2506513587537
18,196.0318433,1136,1136,1107.5721630564817,1710.1943690038556,1135,-inf,,1112.1903050786516
19,196.575389325,1117,1137,1108.4981825402306,2331.158234269364,1125,0.4,,1116.0602988720082
20,197.11883,1107,1127,1109.1899781360694,3000.4412150281896,1108,0.05,,1119.8526672078283
21,197.662165325,1116,1124,1109.6640138913165,3713.381799944632,1129,1.625,,1123.559444555116
22,198.2053953,1114,1120,1109.9367538532906,4465.318477682973,1137,3.8333333333333335,,1127.1726653828762
23,198.74851992499998,1109,1110,1110.0246620693104,5251.589736907519,1115,6.0,,1130.6843641601133
24,199.2915392,1112,1113,1109.9442025866947,6067.5340662825565,1113,1.0,,1134.0865753558317
25,199.83445312499998,1128,1141,1109.7118394527408,6908.489954472223,1139,0.8461538461538461,-inf,1137.371333439014
26,200.3772617,1122,2226,1110.1211805476696,7646.489863869931,1145,0.020833333333333332,-inf,1140.5350291059601
27,200.919964925,1106,6632,1109.283970191829,8398.581190966792,1138,0.00579080709373869,-inf,1143.196924052618
28,201.4625628,1095,11718,1107.8563500871833,9166.954902715628,1141,0.004330226866233644,-inf,1145.1839452762017
29,202.005055325,1091,13819,1107.066751228772,9949.929307571894,1149,0.004556882463859208,-inf,1147.3826813744147
30,202.5474425,1098,14763,1106.603252621782,10743.303223175857,1161,0.004610318331503842,-inf,1149.643933044894
31,203.089724325,1117,15461,1105.6086661079314,11547.253346621445,1164,0.003276631344116007,-inf,1151.5091395048364
32,203.63190079999998,1127,16123,1104.4525357312525,12361.012208656812,1175,0.0032008535609495867,-inf,1152.8960112346604
33,204.173971925,1110,16604,1104.012299259305,13181.344696368862,1181,0.004582419000903576,-inf,1154.7278307549213
34,204.71593769999998,1100,16943,1104.050624023173,13999.225033409322,1176,0.004797071261755981,-inf,1156.9028290561287
35,205.257798125,1104,17185,1103.7819429658446,14808.939500328148,1170,0.0041042223742304585,-inf,1159.2174454687313
36,205.7995532,1098,17526,1103.8230084486413,15605.537837776319,1163,0.0039566593620647674,-inf,1161.6981811592339
37,206.34120292499998,1091,18076,1104.009150830122,16388.831955423368,1162,0.004180158963791581,-inf,1163.9475639312107
38,206.88274729999998,1094,18698,1103.669777344879,17157.389816303552,1161,0.00380595319245626,inf,1164.8308681963126
39,207.424186325,1089,18999,1103.3277084418462,17901.045029332145,1146,0.003182579564489112,inf,1164.5887109560579
40,207.96552,1084,19230,1103.1574667602677,18618.616163446153,1142,0.0031962967045078804,inf,1165.2974699313465
41,208.506748325,1092,19560,1103.182178531769,19313.426827334337,1147,0.002978124323153563,inf,1166.6242270492878
42,209.0478713,1114,19925,1103.6720650524148,19981.0621305122,1164,0.002658019244059327,inf,1167.3267118167798
43,209.588888925,1108,20424,1104.7214659448473,20615.09062492882,1173,0.00336508593911783,inf,1168.3740515073732
44,210.12980119999997,1083,20777,1106.27452490428,21212.635937393417,1170,0.004417589113435564,-0.1077226231540009,1170.048789327029
45,210.670608125,1089,21124,1107.4075516999042,21760.017554191072,1166,0.003843274270027452,-0.16327098706162524,1171.447643208204
46,211.2113097,1094,21466,1108.0876124034307,22253.77850007885,1156,0.003043392892204987,-0.23088568200145185,1172.4328976873544
47,211.751905925,1104,21673,1109.019660694445,22693.22190763054,1154,0.002430842530020905,-0.25020263173178564,1173.6574101338424
48,212.29239679999998,1108,21979,1109.9973951844677,23066.716845228213,1160,0.002491495376359542,-0.19123206690407235,1174.8040952229721
49,212.83278232499998,1111,22336,1111.072187365491,23380.539038256364,1169,0.0027326266195524147,-0.04169635302454946,1175.2827244104965
50,213.37306249999997,1106,22721,1112.3868717298028,23636.31239665632,1180,0.0034235484617164006,-0.02001436731135326,1175.558313891572
51,213.91323732499998,1103,23213,1113.7727241839918,23826.18326575868,1178,0.0033921302578018998,0.0022311162124963816,1175.646311354708
52,214.45330679999998,1140,23819,1115.4066230265478,23986.381707399487,1187,0.002072401781383659,0.0025699613477894014,1175.5464676436388
53,214.993270925,1158,24274,1116.1389838954235,24229.524519241193,1201,0.0018601834227374978,0.0025193834733218856,1174.6490747242067
54,215.5331297,1131,24695,1115.8281954290937,24595.058687625526,1187,0.002376506535392972,0.0024417545807993856,1173.3064395569324
55,216.07288312499998,1118,25161,1116.0839203605756,25005.26261070418,1180,0.0025787131389593647,0.00238045143490706,1173.0204308138125
56,216.61253119999998,1131,25514,1117.3989444834324,25426.73836326935,1187,0.0022966821145880326,0.00231260510842165,1173.4331694941902
57,217.152073925,1141,25770,1120.0184828648225,25862.81863688822,1193,0.002111332169393804,0.002198737155361246,1174.3010034202136
58,217.69151129999997,1131,26019,1123.1657115676244,26319.469297152318,1181,0.0020090003214400516,0.0020803144110868553,1175.6052458719112
59,218.230843325,1121,26443,1125.290697411018,26795.10108949189,1173,0.0020535502724903245,0.002012464413448601,1176.8156470134998
60,218.77006999999998,1130,26938,1126.8372783075276,27283.69784140019,1168,0.001472411655300682,0.0019610702364466787,1177.7440259122293
61,219.30919132499997,1132,27514,1128.7586581802316,27776.060930031854,1167,0.0013266621181108331,0.001894616118653562,1178.7359849599993
62,219.84820729999998,1121,27976,1130.93759768056,28273.48528845446,1161,0.0014894805436603984,0.0018247019574486136,1179.8112075018462
63,220.38711792499998,1130,28366,1132.9884935105902,28788.734490021874,1180,0.0018358055514759877,0.0017579689415664485,1180.6235928333372
64,220.9259232,1134,29011,1134.8432580579183,29329.716664023537,1198,0.0022957994045270293,0.0016828398766211266,1181.051733901085
65,221.464623125,1133,29607,1136.398083761785,29884.49308025039,1180,0.0016506286436749316,0.0015897421570702187,1180.7870166934472
66,222.0032177,1128,29977,1137.1202745248825,30444.14247208259,1175,0.0016291725883046206,0.0015105648874318537,1180.1163333257605
67,222.54170692499997,1118,30343,1137.8236879657304,31004.81888604439,1191,0.0024978614200171084,0.001433945830389141,1179.563206414619
68,223.0800908,1128,30768,1139.54241319167,31567.26111576645,1188,0.0020242914979757085,0.0013386554964891894,1179.484291829917
69,223.61836932499997,1125,31148,1141.0978504609172,32131.848580941194,1177,0.0017320054624787662,0.001261487999099679,1179.508006976353
70,224.1565425,1125,31866,1141.8247978436439,32691.482864843427,1172,0.001528902768289906,0.0012242780113443557,1179.5016195157082
71,224.69461032499999,1133,32595,1142.399510747673,33242.59034179646,1160,0.0008581781196363868,0.0011823496504461102,1179.2864164533512
72,225.23257279999999,1137,33247,1142.6177263357954,33783.06102063403,1163,0.0008097165991902834,0.0011249797878333156,1178.4314933520352
73,225.77042992499997,1138,34202,1142.7176379985738,34300.80855738456,1167,0.0008770868618436971,0.0010538242696738133,1177.1802985344857
74,226.30818169999998,1133,34839,1142.6854968402235,34795.30963328661,1159,0.0007713760161395597,0.0009932934397848714,1176.0865931277945
75,226.84582812499997,1130,35280,1142.1335251081346,35265.837233005725,1151,0.0006149341142020498,0.0009550595411221802,1175.0528664295682
76,227.3833692,1149,35852,1140.9460689936132,35705.38687172914,1174,0.0007203988127827565,0.0009469715437756215,1174.066683277062
77,227.92080492499997,1142,36185,1139.2435842261214,36110.81068653807,1183,0.001169991153725423,0.0009657351210333371,1173.2614102244447
78,228.45813529999998,1163,36350,1138.5675100228552,36482.10847357741,1202,0.001108363884389121,0.0009607179831460939,1172.9817209902603
79,228.99536032499998,1196,36600,1139.1125959817668,36806.46721329971,1222,0.0007343802960117501,0.0009322766533977067,1173.3321932546378
80,229.53248,1181,37081,1139.1769009490367,37075.348252507836,1196,0.00041782729805013927,0.0009291509303382372,1173.7705270787337
81,230.069494325,1156,37770,1138.759292396182,37292.79727740081,1184,0.0007647348008958322,0.0009387390299963611,1174.0241002060977
82,230.60640329999998,1132,38193,1138.7242293143454,37449.53915150894,1170,0.0010253366072151319,0.0009377609334416266,1174.400847131283
83,231.143206925,1125,38398,1139.0210197286242,37531.5544859446,1164,0.001046333807313605,0.000928791267354438,1174.8804276427327
84,231.67990519999998,1144,38441,1138.581417472628,37535.352737320616,1173,0.0007775424296860337,0.0009460349648015079,1175.1103535753698
85,232.216498125,1155,38465,1137.2829962173332,37470.664046750055,1179,0.0006432591798445457,0.0010010139279013298,1175.2299712337538
86,232.75298569999998,1147,38612,1135.935174069606,37340.17803347683,1171,0.0006405978913652743,0.0010536751870306221,1175.1111236947384
87,233.289367925,1130,38733,1134.979048223041,37140.79163740898,1158,0.0007446214397787411,0.001088242537069035,1174.921334571542
88,233.8256448,1121,38549,1134.369272237175,36866.12996896801,1161,0.0010687186063909372,0.001088151232832525,1174.3344130104647
89,234.36181632499998,1123,38061,1134.0605902738237,36512.35830936078,1169,0.0012453300124533001,0.0011024613054129446,1174.292396203742
90,234.89788249999998,1120,37495,1133.5541688373244,36096.91782373257,1173,0.0014570446735395189,0.0011567270315107308,1174.9074044712
91,235.433843325,1135,36964,1132.6903893632707,35625.51967201907,1177,0.0011722347818805994,0.0012077288477563863,1174.909669528166
92,235.9696988,1137,36482,1131.7759632154532,35087.485152550915,1172,0.0009902390720045269,0.001256141276989817,1174.6895512921926
93,236.505448925,1119,35838,1130.0440553579704,34482.79850053162,1168,0.0014113309715141566,0.0013479382639808842,1174.6434347323611
94,237.04109369999998,1112,35147,1127.7265849735904,33819.70074067298,1171,0.0017335096224474805,0.0014590908576747842,1174.2151577611953
95,237.576633125,1104,34378,1125.4418673129412,33099.96545788063,1167,0.0018933701989541384,0.001586163342727076,1173.970508958278
96,238.11206719999998,1101,33530,1123.2471630161285,32334.556501845404,1167,0.002035215393629159,0.0017357743626289402,1174.1390744977011
97,238.64739592499998,1105,32541,1121.2734829780754,31537.875376565113,1175,0.0022267464053950885,0.0018812067715840786,1174.1626084395798
98,239.1826193,1108,31607,1119.4938277197457,30721.8688305505,1183,0.0024590970195744123,0.0020367734485083468,1174.5242021336612
99,239.71773732499997,1107,30571,1117.853677319963,29907.70617680977,1181,0.0025115395058376323,0.0021824859918571004,1174.710956080523
100,240.25275,1120,29393,1116.1524383338026,29093.09255022708,1187,0.002369752060269515,0.0023177332697226784,1174.439466352556
101,240.787657325,1131,28274,1114.600172144308,28280.4556162082,1199,0.0025052499723685665,0.002453881233985351,1174.2195519717095
102,241.3224593,1141,27197,1113.6549865228897,27490.412149765038,1195,0.0020724593183911576,0.0025967430791812582,1174.7941289723212
103,241.85715592499997,1143,26098,1112.3383768601566,26718.682280458837,1190,0.001883390102183931,0.0027556748008326338,1175.510815646991
104,242.3917472,1123,25170,1111.5341004326046,25965.956624158596,1188,0.0027030398802345406,0.002912188782946944,1176.6200593444698
105,242.92623312499998,1112,24411,1111.8845273958427,25248.658338806737,1175,0.002703978711532684,0.003056599964374406,1178.475526059458
106,243.46061369999998,1110,23484,1112.4388094860374,24591.320505560245,1175,0.0029051577724144096,0.003177354609396118,1179.7882398242089
107,243.994888925,1104,22682,1112.3993521936864,24000.827108201316,1179,0.003475762350542219,0.0032960110085895715,1180.4628417404472
108,244.52905879999997,1098,22215,1111.6823710616109,23474.8778228268,1185,0.00411990339536866,0.0034312230151966935,1181.1019049128859
109,245.063123325,1109,21855,1110.9620829463647,23021.90991868401,1185,0.0036633567916706834,0.0035673152081865207,1181.8569390019932
110,245.59708249999997,1125,21354,1110.797571858911,22653.45312464565,1182,0.002817736912353552,0.003686126219778125,1182.6616231397993
111,246.130936325,1135,20865,1111.3788534281423,22388.388887630095,1185,0.002534211860111505,0.003795552256871201,1184.1680672268683
112,246.66468479999997,1124,20644,1112.002446261502,22239.77691453898,1186,0.0031762295081967213,0.003896785401382848,1185.7717275589255
113,247.19832792499997,1097,20659,1112.1752701080218,22210.756098665457,1193,0.0049074736734485225,0.00400059658919145,1187.4500894697273
114,247.7318657,1088,20896,1111.715440893317,22293.856893700453,1195,0.005401857835218094,0.00412213854009336,1189.6539219461142
115,248.265298125,1092,20988,1111.1076808081511,22483.136650886343,1196,0.005227181342983514,0.004259072716409427,1192.828059525674
116,248.79862519999998,1098,21034,1110.5436363224323,22773.246506149193,1205,0.005367174959871589,0.004406988026164184,1196.909918684432
117,249.33184692499998,1089,21418,1110.6549412217505,23154.66203084963,1213,0.00609966058340302,0.004540591275122993,1201.3437223945953
118,249.8649633,1100,22034,1111.0532741398233,23641.99601349929,1232,0.006305531670965893,0.004663999504905609,1206.1408185915645
119,250.397974325,1127,22696,1110.8426011913987,24241.678361910337,1256,0.005980805786081877,0.004798901167964994,1211.459806564112
120,250.93087999999997,1123,23541,1110.0631724387654,24956.481505809392,1253,0.005798911588901776,0.004946423463674261,1217.5837051801618
121,251.46368032499998,1119,24716,1109.24974518107,25778.031212484504,1245,0.005339661821417977,0.005097523637846201,1224.6433214795118
122,251.99637529999998,1119,25835,1108.7170264331935,26681.748556025672,1246,0.00513837190483897,0.005247673917781902,1232.3612992366523
123,252.52896492499997,1117,26870,1107.7056331966537,27654.690412013333,1244,0.004931464295421893,0.005425880633209049,1241.366259711408
124,253.06144919999997,1114,27899,1106.6502752044,28695.68814695635,1262,0.005525480679484786,0.005638024958848661,1252.4504065777012
125,253.593828125,1111,29111,1105.9937937438915,29807.960134996825,1280,0.006035714285714286,0.005869738973311099,1265.7892364492725
126,254.1261017,1101,30443,1105.8014904074626,30983.282520554792,1280,0.006100470315588576,0.006113227241272921,1281.405128088947
127,254.65826992499998,1098,31586,1106.1680898774391,32198.780855737907,1287,0.0061991603253739175,0.00637606711586901,1299.2071394595325
128,255.19033279999996,1104,33007,1106.6845002151592,33440.802736188176,1307,0.006363037958812651,0.006651853572374377,1318.7886475344603
129,255.722290325,1111,34605,1106.8497814219813,34706.45538970239,1335,0.006687764972830954,0.006962507835360203,1341.0216992457104
130,256.2541425,1115,36087,1106.7464495231845,35993.37160524518,1360,0.00700560448358687,0.007324840035039002,1366.195044055332
131,256.78588932499997,1105,37309,1106.7609911889072,37286.18229178393,1386,0.007761573306816926,0.0077080442273776955,1393.3626809213986
132,257.3175308,1108,38893,1106.5615982241743,38562.3472105816,1431,0.008548365753605928,0.008139834660719433,1423.144805091821
133,257.849066925,1111,40723,1105.6830958798403,39807.10034202284,1456,0.008709481975159042,0.008639191754043672,1455.3114906339617
134,258.3804977,1105,42438,1104.449613807766,41022.25173843044,1485,0.009193622529213945,0.009213236297710817,1490.4441776710398
135,258.91182312499996,1107,43905,1103.942195746202,42210.62026319881,1537,0.010047198467218094,0.009813344544812502,1528.556841604537
136,259.4430432,1097,44921,1103.829056150741,43356.197739472314,1571,0.010815991237677985,0.010439402515904198,1569.6742395070935
137,259.974157925,1091,45767,1104.1168089877249,44452.94738272582,1616,0.011751275852806876,0.011117769427804297,1614.9848467688655
138,260.5051673,1090,46618,1104.675485288434,45505.623751386476,1660,0.012519768054823405,0.011871587035719083,1665.1458017168814
139,261.03607132499997,1102,47522,1104.3010713719239,46497.90473170311,1709,0.013076260232658336,0.012743289592501112,1718.9500781444322
140,261.56687,1110,48359,1103.3074588325685,47425.162676390406,1754,0.013629918093504624,0.013715427463446363,1776.4228861355523
141,262.097563325,1107,49290,1101.8955582232682,48282.91662325216,1803,0.01444492870929581,0.014781205136628082,1838.4316292554408
142,262.62815129999996,1101,50600,1100.3213209812016,49055.870597294575,1879,0.015717489242206912,0.015940662345544088,1904.3698158508323
143,263.158633925,1096,51474,1098.442139119778,49753.92470950548,1955,0.017051093731390687,0.017216621319612258,1975.1882262338522
144,263.6890112,1100,51867,1097.0017440938427,50377.571768329,2035,0.018417475919396457,0.018592187994784192,2051.0655960497015
145,264.219283125,1113,51908,1096.9699426940379,50911.803823415175,2122,0.019864159858253766,0.020052365979072142,2131.320392307826
146,264.7494497,1106,51885,1096.9828988198844,51365.37334933875,2207,0.021682191457098408,0.02160741240421678,2215.6099571903815
147,265.27951092499995,1090,52368,1097.1534123082986,51760.599266120546,2316,0.023908888802215374,0.023258692340745034,2305.9072006160513
148,265.8094668,1107,52926,1097.4555482570177,52093.55713606097,2425,0.025434686118991103,0.025025976394273862,2402.7665632290195
149,266.33931732499997,1111,53328,1097.6620535006246,52343.59811094148,2519,0.026964398567516326,0.02690413096561326,2503.488346281861
150,266.8690625,1095,53185,1097.8926136492123,52501.31683616742,2605,0.028988289498944136,0.02893865120352783,2608.297334027901
151,267.398702325,1090,52730,1098.3172665292323,52583.738612425106,2706,0.03129357087529047,0.031119681444720014,2718.2522593942717
152,267.9282368,1081,52653,1098.733085687084,52608.84418673028,2828,0.0338749709144497,0.03343074146801669,2834.4167478311538
153,268.457665925,1087,52673,1099.0401594599894,52567.43228612098,2961,0.036327685806226494,0.03588416897848581,2956.3253754331354
154,268.9869897,1106,52329,1099.4229993884135,52463.086298669405,3073,0.038400718427269,0.03850405515827505,3083.9171442161187
155,269.516208125,1100,51746,1099.9838048426707,52307.71140909093,3185,0.04116810804407061,0.04128878378148132,3217.4561824729276
