,x_(nm),baseline_dark,baseline_light,baseline_mirror,baseline_calibration,baseline_dark_smoothed,baseline_light_smoothed,raw_signal,calibrated_signal,calibrated_signal_smoothed,raw_signal_smoothed
0,186.23,1284,1279,0.3621226043733797,-0.07242452087467594,1265.3595909578137,4116.747295660722,1253,2.245160147114954,,1399.3884952142448
1,186.775442325,1274,1275,1.18800459154587,1.18800459154587,1271.7438363831247,3143.7387771105805,1246,-33.26412856328436,,1353.2422929887973
2,187.3207793,1273,1268,1.908567993433533,-0.38171359868670657,1277.7240145792218,2292.4197322986533,1260,4.962276782927185,,1313.4014844447702
3,187.86601092499998,1283,1269,1.7279185264672412,-0.12342275189051723,1283.3127003680029,1558.6380101984264,1265,2.22160953402931,,1279.636412804116
4,188.41113719999998,1289,1268,1.043047789334166,-0.049668942349246,1288.5224685713656,938.2414597833872,1263,1.291392501080396,,1251.717421288787
5,188.956158125,1289,1269,0.840365554154959,-0.04201827770774795,1293.365894011208,427.0779300270233,1268,0.882383831862707,,1229.414853120736
6,189.50107369999998,1287,1280,0.8202728553565946,-0.11718183647951351,1297.8555515094274,20.995269902820837,1279,0.9374546918361081,,1212.4990515219156
7,190.045883925,1297,1298,0.837733819880384,0.837733819880384,1302.004015887922,-284.1586716157317,1300,2.513201459641152,,1200.7403597142782
8,190.59058879999998,1307,1311,0.8116271105193998,0.20290677762984996,1305.8238619685894,-492.53604555514903,1309,0.4058135552596999,,1193.9091209197763
9,191.135188325,1317,1322,0.8262856362484797,0.16525712724969593,1309.3276645733276,-608.2890029419423,1306,-1.8178283997466553,,1191.7756783603627
10,191.67968249999998,1323,1323,0.8012221689422371,inf,1312.5279985240343,-635.5696948026243,1310,-inf,,1194.1103752579897
11,192.22407132499998,1307,1309,0.7775424502505143,0.38877122512525714,1315.437438642607,-578.530272163709,1299,-3.110169801002057,,1200.68355483461
12,192.7683548,1297,1306,0.7753865851703869,0.08615406501893189,1318.0685597509441,-441.32288605170834,1288,-0.7753865851703869,,1211.2655603121761
13,193.312532925,1295,1310,0.7956261498651602,0.05304174332434401,1320.4339366709428,-228.09968749313612,1287,-0.4243339465947521,,1225.6267349126404
14,193.8566057,1301,1317,0.7908861747409445,0.04943038592130903,1322.5461442245012,56.98717248549474,1293,-0.39544308737047223,,1243.5374218579555
15,194.400573125,1320,1331,0.7942231778648126,0.07220210707861932,1324.4177572335172,409.7855428576722,1307,-0.9386273920220511,,1264.767964370074
16,194.9444352,1336,1329,0.7947581770897779,-0.11353688244139684,1326.0613505198883,826.1432725968843,1319,1.9301270015037464,,1289.0887056709487
17,195.488191925,1345,1329,0.7914877943554887,-0.04946798714721804,1327.4894989055126,1301.9082106766164,1324,1.038827730091579,,1316.2699889825317
18,196.0318433,1349,1331,0.7911116722494277,-0.04395064845830154,1328.7147772122876,1832.9282060703572,1329,0.8790129691660308,,1346.0821575267757
19,196.575389325,1345,1331,0.7900325230816138,-0.056430894505829554,1329.7497602621113,2415.0511077515916,1326,1.0721869956107615,,1378.2955545256334
20,197.11883,1338,1317,0.798472358442206,-0.03802249325915267,1330.6070228768815,3044.1247646938073,1309,1.1026523045154275,,1412.6805232010572
21,197.662165325,1334,1310,0.7981102791346143,-0.033254594963942265,1331.2991398784957,3715.9970258704934,1301,1.0974016338100947,,1449.0074067749997
22,198.2053953,1336,1315,0.8040599544843242,-0.0382885692611583,1331.8386860888522,4426.515740255137,1308,1.0720799393124323,,1487.0465484694134
23,198.74851992499998,1329,1314,0.8074165803696804,-0.053827772024645365,1332.2382363298484,5171.52875682122,1314,0.8074165803696804,,1526.5682915062507
24,199.2915392,1325,1319,0.8060625325032217,-0.13434375541720361,1332.5103654233822,5946.8839245422405,1312,1.746468820423647,,1567.3429791074648
25,199.83445312499998,1342,1343,0.8122546130835153,0.8122546130835153,1332.6676481913264,6748.429092391545,1329,-10.5593099700857,-inf,1609.1409544949747
26,200.3772617,1348,2354,0.8144257223941842,0.0008095683125190697,1332.9443702008853,7461.72855557303,1390,0.03400186912580093,-inf,1645.9676549864912
27,200.919964925,1329,6448,0.8150182986479615,0.0001592143580089786,1332.7069242791201,8192.780153570706,1609,0.04458002024251401,-inf,1682.246007837065
28,201.4625628,1322,11168,0.8232603193402961,8.361368264679018e-05,1332.4390812928689,8941.530793449285,1850,0.04414802443750522,-inf,1718.8155111100714
29,202.005055325,1331,13194,0.8194894939197722,6.907944819352375e-05,1332.7700287661978,9706.196244535364,1957,0.04324373456914587,-inf,1756.6038188860116
30,202.5474425,1332,14129,0.8269202298982968,6.461828787202445e-05,1333.123672110328,10485.198600194595,2005,0.043488107737872456,inf,1794.9941108518537
31,203.089724325,1330,14803,0.8298864771900701,6.15962649142782e-05,1333.1106706833423,11277.030238510282,2026,0.04287100038033763,inf,1833.145190151497
32,203.63190079999998,1325,15461,0.8293789756785952,5.8671404617897226e-05,1332.5878502344078,12082.92081360823,2065,0.043416839417243946,inf,1871.296926317661
33,204.173971925,1326,15995,0.8303112569560028,5.660312611330035e-05,1332.5137149199045,12902.22591678156,2085,0.04296177271999497,inf,1910.6525176107812
34,204.71593769999998,1340,16375,0.832804584655424,5.5391059837407644e-05,1333.069627851115,13723.23635869416,2099,0.0420418144165924,inf,1950.0992094950816
35,205.257798125,1346,16697,0.8371769300637781,5.453566087315342e-05,1333.7897574123729,14539.774875987852,2114,0.041883387550581824,inf,1988.8095087091058
36,205.7995532,1333,17146,0.8381556767340916,5.3004216577125885e-05,1334.333121927991,15349.18510045498,2126,0.042032343745660825,-0.01815534674662479,2027.012933475238
37,206.34120292499998,1331,17744,0.840625124319978,5.12170306659342e-05,1334.4749824457826,16151.70320958541,2152,0.04204918217673198,-0.0995583051791249,2064.4951188021982
38,206.88274729999998,1327,18396,0.8415937915656597,4.930539525254319e-05,1334.1225848829843,16944.435796959966,2169,0.04151514280264137,-0.12284527059377826,2100.2273664182253
39,207.424186325,1324,18782,0.8431564976534377,4.829628237217537e-05,1333.3414573376263,17719.33694987395,2170,0.040858654886860364,-0.1390239051582367,2133.620036693882
40,207.96552,1336,19058,0.844165982526256,4.763378752546304e-05,1332.7498697591989,18475.824526036475,2183,0.04034581803406719,-0.15660157105322597,2165.6259031914237
41,208.506748325,1333,19439,0.8476484869242688,4.681588903812376e-05,1332.303109923189,19213.8795216196,2204,0.040776639352205796,-0.19402450810285526,2196.9234184239313
42,209.0478713,1322,19903,0.8491768105118729,4.570135140799058e-05,1332.332374459192,19928.980882918826,2228,0.04140542437563947,-0.1440713021923244,2227.3729869305785
43,209.588888925,1314,20437,0.8502736512177026,4.4463402772457386e-05,1332.8611973090867,20615.07076037923,2253,0.04175113520333749,-0.11163616991877962,2256.0010419261607
44,210.12980119999997,1317,20854,0.8513731200582484,4.357747453847819e-05,1333.559967383154,21269.585177466804,2259,0.04104998101524645,-0.07792256497433336,2282.797843665725
45,210.670608125,1323,21312,0.8534308197221572,4.269502324889475e-05,1334.3603479127244,21879.906113388333,2271,0.040474882039952226,-0.03222203486668532,2307.1162427234603
46,211.2113097,1326,21735,0.8557212941711507,4.1928624340788415e-05,1335.1156085075283,22444.49088314528,2288,0.040335336615838456,0.02153467676247344,2328.187954427009
47,211.751905925,1334,21981,0.8575135521308375,4.153211372745859e-05,1335.5627081020832,22959.00421300552,2295,0.03991236129208771,0.08261916044951681,2346.1404335318584
48,212.29239679999998,1337,22361,0.8580327959771828,4.081206221352658e-05,1336.0406351219476,23414.31595279576,2307,0.03958770034712079,0.15059961118160423,2361.5352103104933
49,212.83278232499998,1342,22858,0.8587529108532552,3.9912293681597656e-05,1336.647919545151,23816.033409589796,2316,0.03887457404587612,0.21778866211223988,2374.27622369698
50,213.37306249999997,1351,23326,0.8598387128136875,3.9128041538734355e-05,1337.3410043262334,24163.532990554246,2326,0.03814984050026599,0.32183907236472786,2383.6315884844043
51,213.91323732499998,1352,23866,0.8611437003932625,3.824925381510449e-05,1337.5392874130528,24449.958798613312,2341,0.03782851202313834,0.03927568619723484,2389.4254909510514
52,214.45330679999998,1357,24493,0.8624756676121401,3.727851260425917e-05,1337.6484858093925,24709.09341094881,2388,0.0384341464949912,0.038835814193366014,2393.3702009105073
53,214.993270925,1353,25056,0.8630074298534857,3.640920684527215e-05,1336.7586581802275,25043.790550181853,2428,0.03913989735866756,0.03868869553111866,2400.69754694326
54,215.5331297,1337,25614,0.8629495266956824,3.5545970535720325e-05,1335.397947858363,25489.36326983575,2424,0.03863846997232799,0.03854340390513323,2413.4427506851334
55,216.07288312499998,1336,26143,0.8648478670709356,3.486305748663424e-05,1334.8984348456106,25975.452875489318,2425,0.03796586960294469,0.03839391124686709,2429.524383338194
56,216.61253119999998,1343,26634,0.8650803831098881,3.4205068329045433e-05,1335.104668282382,26468.756936736452,2456,0.03807024105022757,0.0382663338821896,2446.977643887697
57,217.152073925,1354,26982,0.8652291434094919,3.3761087225280625e-05,1335.7391560397489,26970.959840539475,2483,0.03811626747734183,0.03813203911256786,2465.109560805407
58,217.69151129999997,1345,27222,0.8680312398394996,3.354450824436757e-05,1336.2873904278435,27486.717343540666,2475,0.03790529431613535,0.03802544888711748,2484.3032231760153
59,218.230843325,1329,27731,0.868212549145114,3.288434774430399e-05,1337.1372624521252,28015.384221612636,2487,0.038080074687904024,0.03790756210152621,2503.828806994448
60,218.77006999999998,1329,28358,0.868144571802742,3.211900446937519e-05,1338.5692994178546,28551.172710593124,2510,0.0379325442783321,0.03777667624067249,2524.028652970574
61,219.30919132499997,1339,28981,0.8681762475955156,3.1407866565209305e-05,1339.9877460417872,29087.78536320132,2527,0.037312545479468655,0.03765287527916934,2544.34032480912
62,219.84820729999998,1334,29477,0.868951283960652,3.0876284829643324e-05,1341.0876124034262,29627.50041903497,2528,0.03686628408659413,0.037533394553478726,2564.256064689978
63,220.38711792499998,1335,29960,0.8691522224557424,3.0363396417667857e-05,1342.132573784205,30179.297651135348,2555,0.03704334362955478,0.03742999685136787,2585.0513035402346
64,220.9259232,1341,30614,0.8692686507714266,2.969523625086006e-05,1342.8688758522019,30748.60637839983,2609,0.03765355956609056,0.03732653052391582,2606.4775646107
65,221.464623125,1334,31187,0.8701622824311823,2.9148235769644e-05,1343.5877143309897,31328.98165303797,2636,0.037951002972076486,0.037211567334341084,2628.0431040340163
66,222.0032177,1344,31641,0.86932404321908,2.869340341350893e-05,1344.5301592334788,31911.045686198395,2643,0.0372727310341481,0.03707901972723732,2649.240730254315
67,222.54170692499997,1344,32089,0.8705973257298546,2.8316712497311907e-05,1345.3077759405394,32490.324197602942,2646,0.0368683596715001,0.03695773526277411,2670.0948152845535
68,223.0800908,1338,32602,0.8704844215444587,2.784302781296247e-05,1345.4796937642723,33070.17601757621,2669,0.03705907001905305,0.036873467715709034,2691.4073704953166
69,223.61836932499997,1339,33059,0.8703398065724872,2.7438203233684968e-05,1345.0263199619214,33652.073455796766,2687,0.03698669795900734,0.03681279646496281,2712.7300505107182
70,224.1565425,1334,33817,0.8697053263836744,2.677416883858247e-05,1344.5913157715656,34232.38777775195,2713,0.03692157882840522,0.036740922835366695,2733.5952569706596
71,224.69461032499999,1329,34504,0.8700422735223692,2.6225840950184452e-05,1344.4005753244437,34809.666379758775,2744,0.037109564944511,0.036652779290304256,2753.8881288363878
72,225.23257279999999,1335,35226,0.8700397124616915,2.5671703769782287e-05,1344.0509411311436,35381.88532016512,2772,0.036890238317177144,0.03656608840008176,2773.64348003347
73,225.77042992499997,1336,36172,0.8700678242154535,2.4976111614865468e-05,1343.950870914378,35942.18677659675,2789,0.03629029017639952,0.036476503889882196,2792.9897845930286
74,226.30818169999998,1323,36810,0.8699872642519537,2.4515661066079232e-05,1343.9838501438053,36491.61439670138,2801,0.036234147055665106,0.03638753908514077,2812.068608575452
75,226.84582812499997,1311,37315,0.8700242014773532,2.4164653968374436e-05,1343.8280821762412,37037.4621395721,2822,0.03651279214621377,0.03629177389771857,2830.820245079109
76,227.3833692,1343,37905,0.8696880407569096,2.3786664863981994e-05,1343.9309837142146,37575.67335613419,2864,0.03617951725811661,0.036173513429033494,2848.783075494294
77,227.92080492499997,1357,38250,0.87010037851645,2.358443006848047e-05,1344.191216109059,38102.189857074176,2895,0.03627285344532296,0.036037894272030996,2865.7511155405014
78,228.45813529999998,1379,38474,0.8693067287349536,2.34346065166452e-05,1344.5887109560547,38618.275159119505,2929,0.03632364010080006,0.035922761887165165,2882.929715282284
79,228.99536032499998,1396,38798,0.8691277262341458,2.3237466612324095e-05,1344.6818727490736,39116.46136945269,2957,0.03627368538183791,0.03584161239704738,2900.1439217195757
80,229.53248,1384,39344,0.86926662631248,2.289954231592413e-05,1344.237468572309,39589.53514235807,2949,0.035837783724421264,0.03575214109845248,2915.6005798545275
81,230.069494325,1367,40148,0.8686441253792921,2.239870362753132e-05,1343.8484223877972,40045.65686651943,2956,0.03559154006414727,0.03565437967747381,2930.3196448390113
82,230.60640329999998,1353,40727,0.868302707705708,2.205269232756916e-05,1343.768058166637,40476.75913384144,2960,0.03543867657040364,0.035576705623074516,2945.0838524088317
83,231.143206925,1351,41163,0.8687016218294412,2.1820094992199366e-05,1343.8437790210166,40864.851593466796,2969,0.03530491369737857,0.03551857882672483,2959.0017893949466
84,231.67990519999998,1340,41491,0.8683284847277679,2.162657180961291e-05,1343.552719200862,41209.34757299066,2985,0.03557571062681324,0.03545786856908391,2970.602527803517
85,232.216498125,1332,41819,0.8683608504247778,2.144789316137965e-05,1342.8822396883024,41527.903689777,2981,0.03536757582311505,0.035409514548727775,2981.1417019637474
86,232.75298569999998,1338,42250,0.868249886800152,2.1222376974974383e-05,1342.0174635891835,41824.48078099084,2994,0.03514425627055758,0.03536809750549485,2990.945774536172
87,233.289367925,1335,42696,0.867778574191436,2.0980599458219967e-05,1341.4865342363103,42089.61394368987,3021,0.03537329068655887,0.03531770811855232,2999.6360959477556
88,233.8256448,1332,42963,0.8676471171202086,2.0841371024481963e-05,1340.7880359690787,42314.05418016182,3018,0.03513855154727659,0.035261034060889054,3006.327731092379
89,234.36181632499998,1335,43065,0.8677489292852631,2.0794366865211195e-05,1339.9455480305073,42490.37289632752,3011,0.03485135886609396,0.03521916657473795,3011.450859589061
90,234.89788249999998,1328,43039,0.8672589311593729,2.0792091562402554e-05,1339.4661487236147,42640.14786291793,2998,0.03472279290921226,0.03520486261067695,3016.8715939205285
91,235.433843325,1328,43103,0.8668004592010585,2.0749262937188712e-05,1338.5172484087718,42770.29921402442,3009,0.03487951099741422,0.03520512391215955,3021.5031144532704
92,235.9696988,1327,43332,0.8665578153052318,2.0629872998577117e-05,1337.779995016849,42864.14475978988,3027,0.0350707840975811,0.03518986177650137,3024.313483884062
93,236.505448925,1332,43465,0.8666098942893835,2.0568435532465846e-05,1337.1317357131277,42918.01325058243,3020,0.034719519178802345,0.03517045082041442,3025.3646288703576
94,237.04109369999998,1340,43557,0.8664654382940954,2.0524088359999417e-05,1335.9077215791722,42940.51487009815,3028,0.03464466115167902,0.03516640685680195,3025.2110127069113
95,237.576633125,1337,43582,0.8658853313998153,2.0496753021654995e-05,1334.6430043715345,42926.554032933105,3031,0.03472149961868356,0.03516896990583917,3023.824820494178
96,238.11206719999998,1329,43614,0.8659634438688039,2.047921115924805e-05,1333.380212462318,42880.52932116161,3041,0.03506040950463266,0.03517656411655478,3021.3444698633593
97,238.64739592499998,1332,43596,0.8653764850454776,2.0475498889018492e-05,1332.3288636208945,42813.235565923664,3054,0.035258809086889845,0.035197209849969734,3018.5878275838063
98,239.1826193,1327,43522,0.865240351462597,2.0505755455921247e-05,1331.7065165688662,42737.03825681134,3050,0.03533141665055231,0.03522470426423976,3016.2796665835567
99,239.71773732499997,1321,43426,0.8654717432609225,2.0555082371711732e-05,1330.5667625540525,42668.9567600617,3041,0.03535474167934418,0.03525843667918011,3014.4039502592914
100,240.25275,1329,43081,0.8654328986505,2.0727938749053938e-05,1328.653763392124,42602.01479082117,3025,0.03515458411839548,0.03530083383173597,3012.232983759484
101,240.787657325,1328,42714,0.8649750843904328,2.0900185676084493e-05,1326.3550703299934,42531.678158054856,3020,0.035363114163934964,0.03535752187112879,3010.1203877776948
102,241.3224593,1323,42444,0.8650023747478218,2.1035538404898272e-05,1325.1087227343514,42470.18152166445,3024,0.03578145082673196,0.03541627302772875,3009.536388140104
103,241.85715592499997,1323,42133,0.864426750181391,2.1181738548919164e-05,1324.3168814695437,42410.5105891405,3020,0.03594541031751582,0.03549324976879482,3010.351219733119
104,242.3917472,1330,41943,0.8640504083213235,2.1275217499847917e-05,1323.9989354232005,42344.02002310276,3018,0.035912567139743286,0.03558012600261841,3011.860993453928
105,242.92623312499998,1332,41955,0.8638615542876957,2.1265331321854508e-05,1324.4837935173814,42281.481415206785,3033,0.036172328578474515,0.03566535760783439,3014.215203062299
106,243.46061369999998,1327,41610,0.8647030136247108,2.1465705474386485e-05,1325.0210197286208,42239.8977100266,3013,0.03619117942981561,0.03574478856239583,3017.2676844322054
107,243.994888925,1321,41430,0.863747888775786,2.15350143054124e-05,1324.9187071054585,42221.380348364946,2991,0.03596347389003871,0.035827578223296436,3020.926521551959
108,244.52905879999997,1326,41693,0.8628771528607923,2.137580580327476e-05,1324.6325171577812,42218.41935264591,2995,0.03567621988566558,0.0359089968276635,3025.075358445207
109,245.063123325,1330,41854,0.8633129275796555,2.130374414124113e-05,1324.5237038211255,42234.548642097536,3014,0.03587550513385006,0.035992858332410116,3030.362907427064
110,245.59708249999997,1325,41642,0.8623491049005171,2.1389218069313615e-05,1324.1710118009214,42279.330924821945,3008,0.03599805401065481,0.036082322545023575,3036.830709642289
111,246.130936325,1328,41371,0.862505803534046,2.1539490136454462e-05,1323.6437291897637,42365.13984461628,3000,0.03601402750815186,0.03616343375860801,3044.422546376983
112,246.66468479999997,1324,41417,0.8631762817630669,2.152935130229883e-05,1323.0844186731042,42496.212915354,2998,0.03604013408004824,0.03623300516491983,3053.2606174544703
113,247.19832792499997,1322,41695,0.8629529675416884,2.1374506911591616e-05,1322.667149878794,42674.35008720387,3009,0.03605879315985506,0.03629939271574393,3063.962445355442
114,247.7318657,1325,42300,0.8621360146885437,2.1040537271227425e-05,1322.2988969172322,42893.55790618051,3034,0.035958278196527665,0.03635473895383231,3075.859996828861
115,248.265298125,1316,42434,0.8624878814902607,2.0975920071264668e-05,1322.03916283492,43148.642891117874,3029,0.03593175108207638,0.03640347881811147,3089.1250990961835
116,248.79862519999998,1322,42280,0.862427427307537,2.1056385255811732e-05,1321.8331106027063,43429.436340573135,3039,0.03615381348422875,0.03644623108860823,3103.2757706855728
117,249.33184692499998,1323,42604,0.8621956715984717,2.088601709257217e-05,1321.6143514009125,43727.147296653675,3068,0.03644609982653844,0.03649773676478596,3118.730005209571
118,249.8649633,1319,43134,0.8614594306460737,2.060168433925801e-05,1321.4632494506982,44058.1427212386,3094,0.03656798970218297,0.03655111021571514,3135.737864957244
