,x_(nm),baseline_dark,baseline_light,baseline_mirror,baseline_calibration,baseline_dark_smoothed,baseline_light_smoothed,raw_signal,calibrated_signal,calibrated_signal_smoothed,raw_signal_smoothed
0,186.23,1020,1026,0.3621226043733797,0.06035376739556328,991.3679767020493,3737.7482221400182,1009,-0.663891441351196,,1172.5893799545297
1,186.775442325,1017,1023,1.18800459154587,0.19800076525764498,997.6486847472413,2806.6490483824637,1006,-2.1780084178340946,,1117.2675855570417
2,187.3207793,1005,1024,1.908567993433533,0.10045094702281752,1003.5956145786805,1992.1064543734026,1008,0.30135284106845256,,1069.303422552701
3,187.86601092499998,1000,1021,1.7279185264672412,0.08228183459367815,1009.2174187042979,1290.1465846264382,1018,1.4810730226862066,,1028.442027218886
4,188.41113719999998,995,1014,1.043047789334166,0.05489725207021927,1014.5227496320247,696.7955836551732,1010,0.8234587810532891,,994.4285358329752
5,188.956158125,988,1018,0.840365554154959,0.02801218513849863,1019.5202598697917,208.07959597320996,1005,0.4762071473544767,,967.0080846723464
6,189.50107369999998,998,1023,0.8202728553565946,0.032810914214263784,1024.2186019255305,-179.9752339058473,1007,0.29529822792837407,,945.9258100143782
7,190.045883925,1033,1031,0.837733819880384,-0.418866909940192,1028.6264283071716,-471.3427614683965,1024,3.769802189461728,,930.9268481364484
8,190.59058879999998,1043,1044,0.8116271105193998,0.8116271105193998,1032.7523915226466,-669.9968422008355,1033,-8.116271105193999,,921.7563353159355
9,191.135188325,1045,1051,0.8262856362484797,0.13771427270807995,1036.605144079886,-779.9113315895597,1042,-0.41314281812423986,,918.1594078302178
10,191.67968249999998,1051,1053,0.8012221689422371,0.40061108447111854,1040.1933384868216,-805.0600851209679,1058,2.8042775912978297,,919.8812019566735
11,192.22407132499998,1045,1045,0.7775424502505143,inf,1043.5256272513839,-749.4169582814561,1054,inf,,926.6668539726805
12,192.7683548,1035,1042,0.7753865851703869,0.11076951216719813,1046.6106628815044,-616.9558065574206,1044,0.9969256095047832,,938.2615001556176
13,193.312532925,1027,1053,0.7956261498651602,0.030601005764044623,1049.457097885114,-411.650485435262,1034,0.21420704034831237,,954.4102767828625
14,193.8566057,1033,1074,0.7908861747409445,0.019289906700998647,1052.0735847701437,-137.4748504013728,1039,0.11573944020599189,,974.8583201317938
15,194.400573125,1049,1086,0.7942231778648126,0.02146549129364358,1054.4687760445247,201.59724305784675,1041,-0.17172393034914865,,999.3507664797896
16,194.9444352,1062,1091,0.7947581770897779,0.027405454382406134,1056.6513242161882,601.5919394559983,1045,-0.4658927245009043,,1027.632752104228
17,195.488191925,1078,1102,0.7914877943554887,0.03297865809814536,1058.629881793065,1058.5353833066893,1062,-0.5276585295703258,,1059.4494132824875
18,196.0318433,1080,1103,0.7911116722494277,0.034396159663018594,1060.4131012830865,1568.4537191235195,1080,0.0,,1094.5458862919459
19,196.575389325,1063,1082,0.7900325230816138,0.04158065910955862,1062.0096351941834,2127.3730914200933,1078,0.6237098866433792,,1132.6673074099822
20,197.11883,1050,1075,0.798472358442206,0.03193889433768824,1063.4281360342873,2731.319644710012,1060,0.3193889433768824,,1173.5588129139737
21,197.662165325,1070,1084,0.7981102791346143,0.05700787708104388,1064.6772563113288,3376.3195235068783,1070,0.0,,1216.9655390812993
22,198.2053953,1094,1081,0.8040599544843242,-0.0618507657295634,1065.7656485332393,4058.3988723242974,1082,0.7422091887547608,,1262.6326221893369
23,198.74851992499998,1082,1076,0.8074165803696804,-0.1345694300616134,1066.7019652079498,4773.583835675869,1069,1.7494025908009743,,1310.3051985154648
24,199.2915392,1078,1081,0.8060625325032217,0.26868751083440723,1067.4948588433913,5517.9005580752,1070,-2.149500086675258,,1359.7284043370614
25,199.83445312499998,1089,1091,0.8122546130835153,0.40612730654175766,1068.1529819474754,6287.375184035759,1096,2.8428911457923034,inf,1410.6473759314777
26,200.3772617,1075,2055,0.8144257223941842,0.0008310466555042696,1069.3547985231623,6973.404357969468,1149,0.06149745250731595,inf,1455.6301388479642
27,200.919964925,1058,6038,0.8150182986479615,0.0001636582929011971,1070.238533149088,7675.918593852488,1394,0.05498918641480222,inf,1501.157625314248
28,201.4625628,1062,10588,0.8232603193402961,8.642245636576696e-05,1070.4562504246776,8396.446623932432,1675,0.052976965752215145,inf,1547.3846972751069
29,202.005055325,1057,12507,0.8194894939197722,7.157113484015479e-05,1070.8264513352306,9131.891481120576,1801,0.05324892432107516,inf,1595.342159505281
30,202.5474425,1062,13380,0.8269202298982968,6.713104642785329e-05,1070.9928877211057,9878.537407415608,1869,0.05417475446727761,inf,1644.2572198690484
31,203.089724325,1065,14046,0.8298864771900701,6.393085873122796e-05,1070.2619538381186,10639.37430066346,1921,0.054724815073931135,-inf,1693.3147976171276
32,203.63190079999998,1066,14668,0.8293789756785952,6.0974781332053753e-05,1069.1885206912748,11414.347867448647,1967,0.05493827798018043,-inf,1742.5814174726158
33,204.173971925,1071,15133,0.8303112569560028,5.904645547973281e-05,1069.1109198396134,12199.535346213723,1989,0.05420464613039472,-inf,1793.4262610704316
34,204.71593769999998,1076,15514,0.832804584655424,5.768143680949051e-05,1069.5947813087294,12988.120954041746,2022,0.05456663922177802,-inf,1844.9044825477008
35,205.257798125,1072,15827,0.8371769300637781,5.673852457226555e-05,1070.145167500942,13773.69104622955,2052,0.05560375408082024,-inf,1896.1342952274886
36,205.7995532,1056,16236,0.8381556767340916,5.52144714581088e-05,1070.897415569981,14550.556524496313,2071,0.056042688529980435,-inf,1947.4225690275734
37,206.34120292499998,1053,16831,0.840625124319978,5.327830677652288e-05,1071.3284785612152,15321.089673604998,2103,0.05594222211534902,0.11047947068275987,1998.8140161724684
38,206.88274729999998,1063,17468,0.8415937915656597,5.1301054042405346e-05,1070.9199528867946,16085.133683661836,2144,0.05545643941984018,0.1287110430777594,2049.29540872949
39,207.424186325,1064,17789,0.8431564976534377,5.041294455326982e-05,1069.5280980316452,16831.652381707074,2164,0.0554542390085968,0.1264375404738936,2097.8099164193577
40,207.96552,1069,18062,0.844165982526256,4.967727785124792e-05,1068.088835534193,17558.03979705056,2159,0.05414823285786023,0.12133930077145995,2144.706154159736
41,208.506748325,1074,18462,0.8476484869242688,4.8749050317705816e-05,1067.4239733629095,18267.473147749315,2171,0.05347770819852328,0.10673128692940662,2190.3249450723265
42,209.0478713,1078,18901,0.8491768105118729,4.764499862603787e-05,1067.2607986590656,18955.915422772523,2220,0.05441058843093524,0.08068644760065835,2234.4428412874154
43,209.588888925,1072,19418,0.8502736512177026,4.634654154680599e-05,1067.3620240548844,19617.23321026486,2267,0.05538411714843316,0.04894125583093534,2277.315114725092
44,210.12980119999997,1063,19882,0.8513731200582484,4.5240082898041784e-05,1067.7851819973068,20249.504586739968,2280,0.05505718088691685,0.03009509512259457,2318.787628258806
45,210.670608125,1063,20372,0.8534308197221572,4.4198602709728994e-05,1067.8929081066185,20840.32899952394,2298,0.054585274346515306,0.030303080484727726,2357.713402342024
46,211.2113097,1054,20773,0.8557212941711507,4.3395775352256744e-05,1067.627828489866,21384.970463656748,2332,0.05545980090018412,0.023227355641767655,2393.635778839792
47,211.751905925,1058,20985,0.8575135521308375,4.303274713357944e-05,1067.5322430858932,21880.47763256204,2349,0.05555527654945106,0.006685976595423475,2426.88171872518
48,212.29239679999998,1069,21310,0.8580327959771828,4.239083029381863e-05,1068.345692994158,22319.03637681445,2383,0.05570155100607768,0.013211203406254195,2456.8153525560697
49,212.83278232499998,1069,21760,0.8587529108532552,4.150369295119884e-05,1069.4482321230173,22706.162381933467,2419,0.05602998548411844,0.05582069263429205,2482.919296020247
50,213.37306249999997,1080,22199,0.8598387128136875,4.0713988011444076e-05,1070.3353416838227,23041.488686040015,2456,0.05602244750374705,-0.0182702941653062,2506.291626084348
51,213.91323732499998,1076,22734,0.8611437003932625,3.976099826360987e-05,1070.8480373281184,23315.93997598995,2495,0.0564208565360624,0.05611364385490942,2526.6100930937932
52,214.45330679999998,1081,23357,0.8624756676121401,3.871770818872958e-05,1070.9247095064236,23562.672699267936,2548,0.056798877912866294,0.056449289552161205,2545.0318467008956
53,214.993270925,1088,23872,0.8630074298534857,3.787778396477729e-05,1069.993453985347,23883.73908808761,2599,0.057233331570778485,0.05661169866416701,2567.417268794261
54,215.5331297,1071,24416,0.8629495266956824,3.696506860979577e-05,1068.8059978708259,24312.953656934005,2619,0.057221926207963854,0.056706497235116046,2595.9808149674463
55,216.07288312499998,1062,25013,0.8648478670709356,3.610905043926916e-05,1068.3132800289723,24781.575460372354,2639,0.05694397254272746,0.05680864646973959,2628.3941425626354
56,216.61253119999998,1073,25435,0.8650803831098881,3.5509415610782695e-05,1068.7791569457765,25257.125234999177,2682,0.057134649717749356,0.0569347215048087,2662.5554146186264
57,217.152073925,1084,25745,0.8652291434094919,3.5084917213798787e-05,1069.9071100137962,25739.905184714902,2725,0.05757434914784381,0.057075191638478684,2698.186550091683
58,217.69151129999997,1079,26064,0.8680312398394996,3.4742094850490276e-05,1071.0981902194635,26235.729031234638,2730,0.057359198598159446,0.0572154635299941,2734.9059095335724
59,218.230843325,1066,26503,0.868212549145114,3.413187676003908e-05,1072.2168339033522,26744.00221975532,2751,0.05751221234066584,0.05732200492095303,2771.7909125913984
60,218.77006999999998,1061,27057,0.868144571802742,3.339531357911763e-05,1073.233187614648,27259.52934381247,2797,0.057974264373348204,0.057424591036797354,2808.9258873360127
61,219.30919132499997,1055,27719,0.8681762475955156,3.255986527135897e-05,1074.0292418854128,27775.97401979606,2837,0.058021679913561684,0.05755668801724902,2846.5551881129268
62,219.84820729999998,1054,28197,0.868951283960652,3.2013826178412555e-05,1074.2600285396973,28294.698860675802,2848,0.05743280416407212,0.05771589262216493,2884.8225101360745
63,220.38711792499998,1066,28558,0.8691522224557424,3.1614732375081566e-05,1073.9601349973746,28825.138576184636,2876,0.05722266559889763,0.05788315534379311,2923.939477677808
64,220.9259232,1086,29194,0.8692686507714266,3.092602286791755e-05,1073.8323404833427,29374.247163015585,2932,0.057089438214175794,0.058028920688414816,2964.094543477712
65,221.464623125,1090,29841,0.8701622824311823,3.0265461459816433e-05,1074.2108994541009,29933.36200140376,2987,0.05741358038927177,0.05816465197471539,3005.143015696787
66,222.0032177,1077,30258,0.86932404321908,2.979075573897673e-05,1074.8036648621508,30493.95540102775,3022,0.05794301991230974,0.05823626402964841,3044.8857505265673
67,222.54170692499997,1071,30663,0.8705973257298546,2.9420023172812064e-05,1075.5237038211303,31053.059004733375,3059,0.05848700606755038,0.05826889382681748,3083.7630070895693
68,223.0800908,1079,31143,0.8704844215444587,2.8954378044985986e-05,1076.1911255067857,31612.50161951513,3094,0.058343071760646764,0.058324280149359455,3123.463090896676
69,223.61836932499997,1073,31534,0.8703398065724872,2.8572266392189595e-05,1076.4435661056668,32171.960225599058,3130,0.058773151968734,0.05839833120418316,3163.2926227094003
70,224.1565425,1067,32190,0.8697053263836744,2.7944135410586202e-05,1076.2358150807286,32729.99966024083,3179,0.05901801398715806,0.058453115837628626,3202.2444222971594
71,224.69461032499999,1063,32914,0.8700422735223692,2.7316011224839696e-05,1075.7468345828693,33287.841083602616,3218,0.058866004189529544,0.05848153929098294,3240.414754581016
72,225.23257279999999,1075,33653,0.8700397124616915,2.6706357433289077e-05,1074.6401050986226,33843.09171215591,3265,0.05848692277890308,0.05852981741321079,3278.444925139804
73,225.77042992499997,1071,34556,0.8700678242154535,2.598380839825156e-05,1073.7329271330966,34388.29552198172,3332,0.05874939078844678,0.05857107856630231,3315.9114589231285
74,226.30818169999998,1051,35160,0.8699872642519537,2.5506091185668116e-05,1073.15936940812,34920.746200366266,3386,0.05955672291853505,0.058603942756814485,3352.725565697913
75,226.84582812499997,1053,35630,0.8700242014773532,2.5161934276465662e-05,1072.477723164717,35446.34107227728,3405,0.05918086941824724,0.05863423164540774,3388.9673831796217
76,227.3833692,1079,36256,0.8696880407569096,2.4723200976686746e-05,1072.0308047747196,35962.28773018573,3451,0.058643432716700965,0.05866180964167851,3424.9112324174293
77,227.92080492499997,1085,36637,0.87010037851645,2.4474020547829937e-05,1071.4430904437042,36464.49425807989,3482,0.05866422725314836,0.058700816429297434,3460.3171079751987
78,228.45813529999998,1107,36858,0.8693067287349536,2.4315591976027344e-05,1071.1297424630025,36954.886588596986,3525,0.058795101398034115,0.0587400058464885,3495.1098326122233
79,228.99536032499998,1127,37149,0.8691277262341458,2.412769213908572e-05,1071.1973997145824,37427.0948832356,3573,0.059016334972203675,0.05878978836250051,3529.424539627104
80,229.53248,1105,37643,0.86926662631248,2.3790755550727462e-05,1071.1313280028787,37876.59573263194,3575,0.058763166210296834,0.05882373351267621,3561.561190513873
81,230.069494325,1079,38393,0.8686441253792921,2.3279308714672568e-05,1070.5166594939658,38310.90511676296,3598,0.058640578652260196,0.058846289991428144,3591.9852771296505
82,230.60640329999998,1057,39019,0.868302707705708,2.2872944199612983e-05,1070.119323200958,38718.20344741597,3617,0.058554737151009235,0.058882627846872114,3621.394187863755
83,231.143206925,1051,39441,0.8687016218294412,2.2628330862970597e-05,1070.039344039482,39083.0616321993,3644,0.058675261927682756,0.05892395907644362,3648.3068699177084
84,231.67990519999998,1054,39710,0.8683284847277679,2.246296783753539e-05,1069.5618473804411,39406.32630410579,3678,0.05894282760569286,0.05895628910372714,3671.751364696752
85,232.216498125,1060,40022,0.8683608504247778,2.2287378738893738e-05,1068.5661283381073,39699.27028924702,3720,0.05928442744545734,0.05901587736152421,3693.840449387231
86,232.75298569999998,1062,40431,0.868249886800152,2.2054151408472453e-05,1067.4297492581736,39965.45432512551,3751,0.05930361313738242,0.05909231408903306,3714.678973476112
87,233.289367925,1062,40853,0.867778574191436,2.1808413314353397e-05,1066.462071621081,40200.65385399366,3762,0.05888271594875417,0.05916418350479771,3733.4839747218925
88,233.8256448,1073,41118,0.8676471171202086,2.166680277488347e-05,1065.3895444970237,40394.02353394111,3773,0.058500367492185366,0.059221119315969795,3748.900790504809
89,234.36181632499998,1075,41153,0.8677489292852631,2.1651502801668326e-05,1064.4028856825546,40536.204285487,3783,0.05863226958691783,0.05927531462157986,3760.838999750771
90,234.89788249999998,1056,41073,0.8672589311593729,2.167226256739318e-05,1064.0263199619267,40648.9511880216,3770,0.05881852060790509,0.05932606209756124,3771.3681397086416
91,235.433843325,1049,41109,0.8668004592010585,2.1637555147305505e-05,1063.622686810553,40743.70805680684,3797,0.05946000154479553,0.05938405408814643,3780.920700355541
92,235.9696988,1045,41282,0.8665578153052318,2.1536342553004244e-05,1063.0135903417768,40804.320641463346,3819,0.05974181424203377,0.059452210758635146,3788.328818319708
93,236.505448925,1047,41364,0.8666098942893835,2.1494900272574437e-05,1062.3413214342136,40824.1412716022,3816,0.059519378854758616,0.059533902802237144,3793.167727468273
94,237.04109369999998,1052,41475,0.8664654382940954,2.143496124221595e-05,1061.7482162676188,40809.508392035284,3833,0.05961062721460256,0.05962004120803833,3795.99381639441
95,237.576633125,1055,41524,0.8658853313998153,2.1396262111735287e-05,1060.9006772520127,40756.55949172044,3847,0.05973836381596492,0.059736200668720804,3797.223764977616
96,238.11206719999998,1061,41486,0.8659634438688039,2.142148284152885e-05,1060.0956760062313,40667.91857120129,3856,0.05987304454207314,0.05986848827954351,3796.6804910642777
97,238.64739592499998,1070,41348,0.8653764850454776,2.148509074545602e-05,1059.5511110104217,40556.82579446796,3853,0.0597930075446041,0.06000323034264166,3794.782916940289
98,239.1826193,1064,41142,0.865240351462597,2.1588910411262963e-05,1059.1333439035789,40436.79673378708,3839,0.05990922639125472,0.060141160485403085,3792.7594056489793
99,239.71773732499997,1061,41005,0.8654717432609225,2.1667127560107213e-05,1058.3920134091168,40323.845953474956,3837,0.06014794610685762,0.06029254466041811,3791.663435185322
100,240.25275,1063,40672,0.8654328986505,2.1849400354729986e-05,1057.2986024598315,40211.14265328696,3829,0.06043544138118314,0.060466155321280544,3791.04068042304
101,240.787657325,1066,40295,0.8649750843904328,2.204937888782362e-05,1056.569503272987,40095.853111054974,3806,0.06041529815263672,0.060627472511810415,3790.003239031389
102,241.3224593,1068,40048,0.8650023747478218,2.2190928033551098e-05,1056.7086004212804,39994.898321592016,3786,0.06031494239519188,0.060775679766649916,3790.2645360030083
103,241.85715592499997,1065,39751,0.864426750181391,2.2344691882887633e-05,1057.1184171781715,39898.498018074395,3779,0.060643493770157035,0.060931843665519625,3791.5054927630704
104,242.3917472,1061,39493,0.8640504083213235,2.2482577235671408e-05,1058.032005254912,39795.00899227539,3764,0.060770406268019814,0.061097097679762166,3793.2750232167614
105,242.92623312499998,1048,39363,0.8638615542876957,2.2546301821419698e-05,1059.4762961788285,39695.393100635716,3773,0.061438672463368676,0.06128114957795579,3796.8775057191965
106,243.46061369999998,1054,38978,0.8647030136247108,2.2800944352513206e-05,1060.9135880767196,39620.18480599711,3761,0.06172215636225325,0.06145373603748215,3801.7058144011594
107,243.994888925,1055,38751,0.863747888775786,2.29135157251641e-05,1061.9400665926546,39571.76746925109,3743,0.06159153026924111,0.061614537648599574,3807.4897053160157
108,244.52905879999997,1055,38896,0.8628771528607923,2.2802704813847208e-05,1062.35296382702,39542.769462501215,3777,0.0620689625032921,0.061768117889932986,3813.8481732314835
109,245.063123325,1065,39007,0.8633129275796555,2.275349026355109e-05,1062.9768058166458,39533.718430767774,3809,0.06243557728318419,0.06192350421161002,3821.918865659398
110,245.59708249999997,1071,38824,0.8623491049005171,2.284186965010773e-05,1063.5586536501187,39553.56091870635,3780,0.06187862488214184,0.062086906886568954,3832.476794491308
111,246.130936325,1071,38598,0.862505803534046,2.2983606564181684e-05,1064.1952705610342,39620.347844797536,3767,0.06196380329703382,0.06225591475006318,3846.7426895285676
112,246.66468479999997,1057,38635,0.8631762817630669,2.2970256047769093e-05,1064.6471267752179,39737.29873836251,3775,0.062433155937836396,0.06242969342751302,3864.772135269128
113,247.19832792499997,1055,38914,0.8629529675416884,2.2793865858625118e-05,1064.7761217694422,39903.70649391756,3801,0.06259195564778458,0.06258979636891893,3885.5768194069337
114,247.7318657,1061,39475,0.8621360146885437,2.2443276271373554e-05,1065.4390586423046,40117.15975446706,3851,0.06261674079713221,0.06272034728353809,3908.804955944567
115,248.265298125,1061,39661,0.8624878814902607,2.2344245634462713e-05,1066.7386350766517,40369.53246959084,3866,0.06267560900466791,0.0628349853229938,3934.642687263509
116,248.79862519999998,1070,39520,0.862427427307537,2.2429842062614747e-05,1067.785906815536,40649.891073409715,3871,0.06282598761738391,0.06293859489578761,3961.763120342401
117,249.33184692499998,1068,39733,0.8621956715984717,2.2299125089835037e-05,1068.6671045776598,40951.323767241964,3901,0.06317342137950266,0.06303745813494065,3989.995605789409
118,249.8649633,1066,40237,0.8614594306460737,2.1992275679611797e-05,1069.0081089039184,41291.576321093686,3956,0.0635576767140781,0.06313775847302307,4020.643525334585
