,x_(nm),baseline_dark,baseline_light,baseline_mirror,baseline_calibration,baseline_dark_smoothed,baseline_light_smoothed,raw_signal,calibrated_signal,calibrated_signal_smoothed,raw_signal_smoothed
0,186.23,1311,1308,0.3621226043733797,-0.12070753479112656,1290.6224328144406,4196.986637196428,1328,-2.0520280914491513,,1544.4189235765264
1,186.775442325,1305,1295,1.18800459154587,-0.118800459154587,1296.1387024863152,3202.644730293365,1317,-1.425605509855044,,1465.406745275114
2,187.3207793,1308,1293,1.908567993433533,-0.12723786622890218,1301.315660468347,2332.6567709102865,1308,-0.0,,1396.6198391241678
3,187.86601092499998,1306,1294,1.7279185264672412,-0.14399321053893677,1306.1639157162615,1582.7734579495573,1318,-1.7279185264672412,,1337.699733213718
4,188.41113719999998,1297,1295,1.043047789334166,-0.521523894667083,1310.6940771857842,948.7454903135413,1312,-7.822858420006246,,1288.287955633794
5,188.956158125,1291,1286,0.840365554154959,-0.1680731108309918,1314.9167538326403,426.3235669046021,1298,-1.1765117758169426,,1248.0260344744256
6,189.50107369999998,1303,1285,0.8202728553565946,-0.04557071418647748,1318.8425546125557,11.258386625103412,1309,-0.27342428511886485,,1216.5554978256425
7,190.045883925,1322,1300,0.837733819880384,-0.03807880999456291,1322.4820884812557,-300.699351622593,1329,-0.26655166996194035,,1193.5178737774747
8,190.59058879999998,1330,1320,0.8116271105193998,-0.08116271105193998,1325.8459643944657,-513.7989489361198,1333,-0.24348813315581994,,1178.5546904199518
9,191.135188325,1336,1330,0.8262856362484797,-0.13771427270807995,1328.9447913079114,-632.2897064131148,1331,0.6885713635403998,,1171.3074758431035
10,191.67968249999998,1334,1326,0.8012221689422371,-0.10015277111777963,1331.789178177318,-660.4209251512166,1336,-0.20030554223555927,,1171.4177581369595
11,192.22407132499998,1331,1320,0.7775424502505143,-0.07068567729550129,1334.3897339584114,-602.4419062480583,1334,-0.21205703188650388,,1178.52706539155
12,192.7683548,1322,1324,0.7753865851703869,0.38769329258519347,1336.7570676069167,-462.6019508012787,1325,1.1630798777555804,,1192.2769256969043
13,193.312532925,1319,1319,0.7956261498651602,inf,1338.9017880785595,-245.15035990851175,1323,inf,,1212.3088671430523
14,193.8566057,1330,1316,0.7908861747409445,-0.05649186962435317,1340.8345043290656,45.663565332605685,1344,-0.7908861747409445,,1238.2644178200235
15,194.400573125,1345,1329,0.7942231778648126,-0.049638948616550785,1342.5658253141603,405.5905238244368,1354,-0.44675053754895705,,1269.7851058178483
16,194.9444352,1363,1340,0.7947581770897779,-0.03455470335172948,1344.1063599895688,830.3812144693447,1348,0.5183205502759421,,1306.5124592265556
17,195.488191925,1360,1348,0.7914877943554887,-0.06595731619629072,1345.466717311017,1315.7863361696955,1350,0.6595731619629073,,1348.0880061361759
18,196.0318433,1352,1349,0.7911116722494277,-0.2637038907498092,1346.6575062342301,1857.5565878278467,1355,-0.7911116722494276,,1394.1532746367388
19,196.575389325,1352,1338,0.7900325230816138,-0.056430894505829554,1347.6893357149338,2451.4426683461697,1348,0.22572357802331822,,1444.3497928182735
20,197.11883,1349,1342,0.798472358442206,-0.114067479777458,1348.5728147088537,3093.195276627025,1343,0.684404878664748,,1498.3190887708104
21,197.662165325,1353,1360,0.7981102791346143,0.11401575416208776,1349.3185521717148,3778.565111572776,1355,0.2280315083241755,,1555.7026905843793
22,198.2053953,1361,1363,0.8040599544843242,0.4020299772421621,1349.9371570592432,4503.302872085786,1361,0.0,,1616.142126349009
23,198.74851992499998,1345,1343,0.8074165803696804,-0.4037082901848402,1350.439238327164,5263.159257068418,1354,-3.633374611663562,,1679.2789241547305
24,199.2915392,1354,1350,0.8060625325032217,-0.20151563312580542,1350.8354049312027,6053.884965423043,1356,-0.40303126625161084,,1744.754612091573
25,199.83445312499998,1377,1378,0.8122546130835153,0.8122546130835153,1351.1362658270598,6871.230696051874,1379,1.6245092261670306,inf,1812.2107182495292
26,200.3772617,1364,2382,0.8144257223941842,0.000800025267577784,1352.259620829438,7598.9039615844895,1462,0.07840247622262284,inf,1871.9257287820428
27,200.919964925,1341,6555,0.8150182986479615,0.00015631344431299606,1352.8130874991248,8344.349928650545,1801,0.07190418438397819,inf,1932.019411538163
28,201.4625628,1340,11415,0.8232603193402961,8.171318306107157e-05,1352.9600670456603,9106.922376497596,2190,0.06945620560191083,inf,1992.8657727241462
29,202.005055325,1348,13482,0.8194894939197722,6.753663210151411e-05,1353.3942105143685,9884.170015175692,2367,0.06881982811144288,inf,2055.593037214847
30,202.5474425,1345,14400,0.8269202298982968,6.334126617374928e-05,1353.858343337309,10675.055040884075,2448,0.06986541658964546,inf,2119.6439103943057
31,203.089724325,1344,15061,0.8298864771900701,6.050058155500985e-05,1353.51131395952,11481.199392964514,2496,0.06969666995137135,inf,2184.2613422727163
32,203.63190079999998,1344,15726,0.8293789756785952,5.7667847008663276e-05,1352.7651588937201,12302.998165303621,2535,0.06868240578731796,inf,2249.544610296906
33,204.173971925,1346,16237,0.8303112569560028,5.57592678098182e-05,1352.6441595505864,13135.858592493347,2580,0.06880693647731566,-inf,2315.9740877482623
34,204.71593769999998,1361,16627,0.832804584655424,5.455290086829713e-05,1352.9106208520884,13969.792248974794,2604,0.06780925577929334,-inf,2382.923214568801
35,205.257798125,1364,16972,0.8371769300637781,5.363768132135944e-05,1353.467190649819,14799.392217263983,2628,0.06779802919019833,-inf,2449.14421617699
36,205.7995532,1360,17432,0.8381556767340916,5.215005455040391e-05,1353.9659335432025,15622.370721873358,2662,0.06789937102462588,-inf,2514.7195406463993
37,206.34120292499998,1359,18075,0.840625124319978,5.028865304618198e-05,1354.1774672132747,16440.05551654593,2710,0.06793997026539185,-inf,2579.8776869237768
38,206.88274729999998,1353,18735,0.8415937915656597,4.8417546402350693e-05,1354.0044621621971,17247.60558563015,2764,0.06831715797371683,-inf,2643.4318104599824
39,207.424186325,1345,19108,0.8431564976534377,4.746700994502267e-05,1353.359555142786,18034.87576162506,2783,0.0682575603009426,0.06557434800138703,2704.744796031568
40,207.96552,1340,19414,0.844165982526256,4.67060961893469e-05,1352.839792520756,18801.952818863032,2795,0.06795736995549974,0.050812495514266996,2764.984982672261
41,208.506748325,1335,19785,0.8476484869242688,4.594300742136958e-05,1352.9055244739145,19551.099232145316,2819,0.06817942301331245,0.04270907702403432,2823.8949466578542
42,209.0478713,1348,20244,0.8491768105118729,4.493950097967151e-05,1353.5559129311841,20279.96382703986,2861,0.067993464982243,0.06325895161134357,2880.7375931504125
43,209.588888925,1355,20828,0.8502736512177026,4.3664235157279446e-05,1353.7437541053898,20980.07141724574,2914,0.06807254261019866,0.09144347763377146,2934.7921357221567
44,210.12980119999997,1347,21280,0.8513731200582484,4.271174033302806e-05,1353.4997395184228,21646.788285124956,2947,0.06833878453284489,0.0766197078777625,2986.260232394787
45,210.670608125,1344,21723,0.8534308197221572,4.187795376231205e-05,1353.6673763844901,22269.666719517565,2982,0.06859608826266714,0.09017976367655053,3034.036761874502
46,211.2113097,1345,22157,0.8557212941711507,4.111672564727805e-05,1353.9100998889862,22846.34585154773,3015,0.06866493183095435,0.11994022481026799,3077.7580692653833
47,211.751905925,1355,22389,0.8575135521308375,4.076797338265843e-05,1354.2605721533637,23372.75942829917,3027,0.0681640514958049,0.1390251311928829,3117.1857799723066
48,212.29239679999998,1372,22697,0.8580327959771828,4.023600450068853e-05,1354.884935106092,23836.889465219592,3049,0.06747577954765467,0.1522593889011012,3152.2349543590412
49,212.83278232499998,1369,23177,0.8587529108532552,3.937788476032902e-05,1355.1683616842702,24242.56667195133,3078,0.0672968050554023,0.04792338137447621,3182.5923803483047
50,213.37306249999997,1360,23679,0.8598387128136875,3.8524965850337716e-05,1355.3557951482221,24591.706743074115,3119,0.06776541493074405,0.02665635556544508,3207.7677184080567
51,213.91323732499998,1351,24236,0.8611437003932625,3.762917633354872e-05,1355.5729008584308,24877.833473011367,3175,0.06863561763239287,0.06802637745918726,3227.6377267887665
52,214.45330679999998,1360,24866,0.8624756676121401,3.66917241390343e-05,1355.6433667806486,25135.77548755303,3246,0.06920059172621869,0.06825255330059837,3244.8589096015144
53,214.993270925,1374,25467,0.8630074298534857,3.581984102658389e-05,1354.482570386619,25470.744614826574,3302,0.06906065349925374,0.06833019316235688,3268.054837029089
54,215.5331297,1359,26088,0.8629495266956824,3.489625648815894e-05,1352.8922512400927,25921.041767649956,3332,0.06885031405113759,0.06834977555821732,3300.2864391038797
55,216.07288312499998,1341,26672,0.8648478670709356,3.414187624140127e-05,1352.3915150965788,26414.542028131502,3355,0.06876173875018217,0.06833847714862887,3336.5913837232365
56,216.61253119999998,1352,27094,0.8650803831098881,3.360579531931816e-05,1352.330675666467,26913.921289269914,3383,0.06825337029353519,0.06835545901554706,3373.938345149316
57,217.152073925,1370,27381,0.8652291434094919,3.326397075889015e-05,1352.3553874379681,27420.061111236417,3423,0.06829093196800148,0.06837494527703758,3412.021971052506
58,217.69151129999997,1364,27700,0.8680312398394996,3.295987393072219e-05,1352.0490158327223,27939.397064485634,3449,0.06872133714555577,0.0683652356125529,3450.5239982784906
59,218.230843325,1356,28248,0.868212549145114,3.228516098263848e-05,1351.730820630113,28471.50336360905,3471,0.06828311547828039,0.0683547362448999,3489.9464314026827
60,218.77006999999998,1349,28881,0.868144571802742,3.1532201503804374e-05,1351.9627171623106,29011.714444267713,3520,0.0684564094647593,0.06830343683130102,3529.5408503023177
61,219.30919132499997,1345,29488,0.8681762475955156,3.0848745606208136e-05,1352.147704364739,29553.83820698034,3566,0.06851506399138826,0.068235742067187,3568.5386531970594
62,219.84820729999998,1347,29934,0.868951283960652,3.039672872146962e-05,1352.2386237513613,30098.723980157527,3587,0.06808867233609195,0.0681616535899533,3607.4494326031604
63,220.38711792499998,1345,30426,0.8691522224557424,2.9887288004392643e-05,1352.2826338082145,30654.820698089967,3629,0.0682625658020328,0.0680791704565931,3646.8968946068294
64,220.9259232,1351,31148,0.8692686507714266,2.917302583385665e-05,1352.0904663752035,31229.209834876747,3691,0.06826488045122456,0.0679986083141296,3687.5299100771676
65,221.464623125,1352,31771,0.8701622824311823,2.8605880615114973e-05,1351.99823325554,31813.7094158412,3730,0.0680247841027434,0.06790062631942247,3728.3003012525046
66,222.0032177,1343,32204,0.86932404321908,2.816901731049156e-05,1351.8423520351275,32399.20804548172,3758,0.06802817680483711,0.0677820400524946,3768.4449024892256
67,222.54170692499997,1339,32557,0.8705973257298546,2.788767139886779e-05,1351.356066955058,32981.21413848495,3782,0.06812958122743401,0.06767518117713366,3808.4237015560207
68,223.0800908,1352,33038,0.8704844215444587,2.7472209226297377e-05,1350.7362114656923,33562.88926136428,3826,0.0679662456258597,0.06755788241174454,3848.021314185978
69,223.61836932499997,1360,33521,0.8703398065724872,2.706196345177349e-05,1349.7678996126494,34145.90294230835,3855,0.06751959881217486,0.06742925842664971,3886.922444449404
70,224.1565425,1346,34213,0.8697053263836744,2.646135413587107e-05,1348.6616910915052,34727.97519762555,3897,0.0675029144006071,0.06730884739869364,3925.884391492371
71,224.69461032499999,1338,34880,0.8700422735223692,2.5938890749578713e-05,1347.5616888264478,35307.83956601441,3941,0.06751893262115338,0.06721261680340408,3965.719404742953
72,225.23257279999999,1335,35577,0.8700397124616915,2.540855418672074e-05,1346.1449862963796,35881.109062492236,4001,0.06773920546179749,0.06713026268614088,4005.2919884934336
73,225.77042992499997,1331,36571,0.8700678242154535,2.46897793477711e-05,1344.8650026047897,36441.79469523588,4050,0.06713151004658961,0.06704038702543659,4043.997757593526
74,226.30818169999998,1322,37310,0.8699872642519537,2.417437101956079e-05,1344.273754784907,36991.10999116557,4084,0.0667696127560269,0.06692203043268255,4081.7258375047354
75,226.84582812499997,1329,37860,0.8700242014773532,2.3816052160558242e-05,1343.5354368162102,37536.17058143941,4130,0.06670876210172363,0.0667803329501968,4118.171917823654
76,227.3833692,1352,38489,0.8696880407569096,2.3418370917330685e-05,1342.2350902624946,38071.76656322834,4193,0.06653159177613648,0.06665196395255825,4153.812090874006
77,227.92080492499997,1348,38825,0.87010037851645,2.3216916469206446e-05,1340.8036422115758,38593.15968651538,4224,0.06677185176543773,0.06655238637436135,4189.122177172675
78,228.45813529999998,1369,39048,0.8693067287349536,2.3071385353511335e-05,1339.9539060907123,39103.785680309105,4244,0.06633023289134508,0.06649044362102056,4225.516115880233
79,228.99536032499998,1386,39346,0.8691277262341458,2.2895883199002787e-05,1339.804978595186,39598.24512446412,4267,0.06596303949632702,0.06645521798970551,4262.628258850628
80,229.53248,1360,39834,0.86926662631248,2.2593611953851432e-05,1339.1791433554295,40070.728261115,4290,0.0661992830247847,0.06643435432746342,4298.430609979759
81,230.069494325,1341,40655,0.8686441253792921,2.2095032949567385e-05,1338.0591179867918,40530.32696097229,4337,0.06619671871690389,0.06641783132144151,4333.077442297591
82,230.60640329999998,1333,41284,0.868302707705708,2.1734192077938176e-05,1337.760832634915,40965.11150875366,4367,0.06594153876446443,0.06638155454491859,4365.830120727453
83,231.143206925,1340,41733,0.8687016218294412,2.1506241720828887e-05,1338.0782124170169,41355.47117714931,4399,0.06578759342401556,0.06636065511526505,4396.326938322414
84,231.67990519999998,1339,42031,0.8683284847277679,2.1339046611809888e-05,1338.1186663344326,41702.81931640501,4419,0.06572426356437445,0.06637525279580896,4424.542096083632
85,232.216498125,1333,42313,0.8683608504247778,2.1189869458876962e-05,1337.7143310153992,42023.05723798873,4440,0.06583692440873072,0.06641107590402195,4451.380461618524
86,232.75298569999998,1337,42700,0.868249886800152,2.099097954210652e-05,1336.9887426668524,42322.89458424798,4484,0.06605861261900922,0.06647726019457796,4477.7969376428955
87,233.289367925,1336,43135,0.867778574191436,2.0760749639738655e-05,1336.195678271283,42594.615846337714,4520,0.06610222685292788,0.06657015988246989,4503.296065595963
88,233.8256448,1336,43451,0.8676471171202086,2.0601854852670274e-05,1335.721194138007,42824.931255520256,4549,0.06619375964162959,0.06667033217796108,4526.275136469596
89,234.36181632499998,1337,43514,0.8677489292852631,2.057398414503789e-05,1335.2716482819287,43005.898298941385,4562,0.0663510988677472,0.06678533886703297,4545.867743323657
90,234.89788249999998,1322,43481,0.8672589311593729,2.05711456903478e-05,1334.7885342816116,43159.655190377205,4571,0.06683565234794,0.06692467725118831,4564.494688441327
91,235.433843325,1312,43575,0.8668004592010585,2.0509676530323417e-05,1334.38073342542,43295.68076287036,4591,0.06725122934293049,0.0670768900686607,4582.479603161932
92,235.9696988,1309,43798,0.8665578153052318,2.0394874327596127e-05,1333.7925660830117,43398.44141430073,4600,0.06711953141211885,0.06724376301023431,4598.422048064421
93,236.505448925,1319,43934,0.8666098942893835,2.0335794773891435e-05,1332.9436906837952,43459.06500713409,4631,0.06735215229112844,0.0674298231409264,4611.457790663347
94,237.04109369999998,1335,44087,0.8664654382940954,2.026724921159467e-05,1332.3163152053019,43485.817051348015,4688,0.06795608660647692,0.06763857709033565,4623.192801648873
95,237.576633125,1330,44127,0.8658853313998153,2.0232383844657694e-05,1332.2488165077098,43478.58354662536,4701,0.06820336594034108,0.06786582592351746,4633.873745724615
96,238.11206719999998,1323,44116,0.8659634438688039,2.023610038718491e-05,1332.0221975582433,43436.86443633974,4681,0.06795282510016692,0.06810398869304965,4642.21835149145
97,238.64739592499998,1331,44162,0.8653764850454776,2.0204442694438086e-05,1331.4617318625305,43370.44666923289,4690,0.06786672301061752,0.06836004922425956,4648.968674262069
98,239.1826193,1335,44104,0.865240351462597,2.023054902996556e-05,1331.115449953541,43294.70971029839,4691,0.06789372254456441,0.06862628420398216,4655.700423565564
99,239.71773732499997,1330,43946,0.8654717432609225,2.0308610457596266e-05,1330.721126186298,43229.66656096318,4697,0.06837909141072662,0.0688797771857226,4662.959025119392
100,240.25275,1335,43582,0.8654328986505,2.0485073464399838e-05,1329.835624815939,43168.22439919281,4715,0.06923954830967145,0.0691348440324633,4670.208611746495
101,240.787657325,1349,43292,0.8649750843904328,2.062263272513728e-05,1329.062470271102,43104.51835828588,4726,0.06964263071278859,0.0693959853011765,4677.695213934541
102,241.3224593,1348,43126,0.8650023747478218,2.070473394484709e-05,1329.4219121610654,43052.29035765168,4735,0.0701269338711971,0.06965849657265052,4687.286756211828
103,241.85715592499997,1340,42844,0.864426750181391,2.0827552770368906e-05,1330.0371695847896,43002.10414731848,4710,0.0701888528361432,0.06993735583269643,4698.131690411925
104,242.3917472,1334,42652,0.8640504083213235,2.0912203115381274e-05,1330.8553761126839,42945.481369905625,4678,0.06993040721783499,0.07021765479286245,4709.123943917099
105,242.92623312499998,1339,42645,0.8638615542876957,2.0913706345027252e-05,1332.2622029943798,42892.02831321126,4684,0.06995634772411616,0.07047175088942777,4719.829690366622
106,243.46061369999998,1339,42244,0.8647030136247108,2.1139298707363666e-05,1333.3485696165003,42858.21069559818,4672,0.07045728259164309,0.07071473838523777,4731.20954041985
107,243.994888925,1321,42001,0.863747888775786,2.1232740628706638e-05,1333.6994042899923,42848.025345986636,4685,0.07142693947496913,0.07094736638910203,4743.338422161226
108,244.52905879999997,1318,42242,0.8628771528607923,2.1084868362349532e-05,1333.9340415411189,42854.78599741701,4724,0.0718150616421625,0.07115539607351132,4755.65158893737
109,245.063123325,1323,42457,0.8633129275796555,2.098781853405104e-05,1334.4482774241515,42879.92851480133,4753,0.07198821757179506,0.07135623589856593,4769.518539491177
110,245.59708249999997,1332,42344,0.8623491049005171,2.1026750826599948e-05,1334.7204919703474,42929.7070148806,4744,0.07174327382035903,0.07154691743413953,4784.84047203778
111,246.130936325,1338,42057,0.862505803534046,2.1181900428155064e-05,1334.954019343561,43017.46612607225,4724,0.07172191484973305,0.07171895155598468,4802.295974993679
112,246.66468479999997,1338,41991,0.8631762817630669,2.123278187988751e-05,1335.4198736097958,43147.38594305565,4715,0.07170310440838013,0.07187714845068545,4822.678135405014
113,247.19832792499997,1330,42239,0.8629529675416884,2.1094452749802938e-05,1335.8556705700894,43321.905048811146,4734,0.07180551716032921,0.07200592670690027,4845.143242202448
114,247.7318657,1327,42887,0.8621360146885437,2.074436993957035e-05,1336.2139119798605,43538.081496748804,4810,0.07225264049952353,0.07210884411938785,4869.551314865475
115,248.265298125,1335,43125,0.8624878814902607,2.0638618843988052e-05,1336.7623049219433,43787.719382091615,4835,0.07223516595395818,0.07219485026853313,4896.0681782145875
116,248.79862519999998,1336,42993,0.862427427307537,2.070306136561771e-05,1337.231511472488,44060.60907381736,4829,0.07231579335010266,0.07226219914091392,4923.415864458897
117,249.33184692499998,1335,43224,0.8621956715984717,2.0582865945677188e-05,1337.3763618654755,44348.11026297226,4860,0.07255460245851209,0.0722988482739549,4950.065482796797
118,249.8649633,1341,43741,0.8614594306460737,2.031743940203004e-05,1337.0429681306227,44668.257038663665,4922,0.07275675049866957,0.07229561205689315,4976.766902987515
119,250.397974325,1350,44197,0.861591555373828,2.0108561985059117e-05,1336.5336700717764,45027.958594757794,4957,0.07253158308010824,0.07226131028423291,5004.613400076916
