,x_(nm),baseline_dark,baseline_light,baseline_mirror,baseline_calibration,baseline_dark_smoothed,baseline_light_smoothed,raw_signal,calibrated_signal,calibrated_signal_smoothed,raw_signal_smoothed
0,186.23,1210,1185,0.3621226043733797,-0.014484904174935188,1185.8559561866984,4014.9314531811897,1209,0.014484904174935188,,1348.9346183885577
1,186.775442325,1205,1187,1.18800459154587,-0.06600025508588166,1191.6707128198793,3045.917019076631,1204,0.06600025508588166,,1301.1270844993371
2,187.3207793,1197,1180,1.908567993433533,-0.11226870549609017,1197.0988363866745,2198.1325292574793,1195,0.22453741099218033,,1259.6135282108323
3,187.86601092499998,1187,1174,1.7279185264672412,-0.13291680972824932,1202.152716503469,1467.4496736382098,1189,-0.26583361945649864,,1224.191764075409
4,188.41113719999998,1193,1179,1.043047789334166,-0.07450341352386901,1206.844742786648,849.7401421332984,1202,-0.6705307217148211,,1194.6596066454317
5,188.956158125,1196,1194,0.840365554154959,-0.4201827770774795,1211.187304852597,340.8756246572211,1207,-4.622010547852274,,1170.8148704732657
6,189.50107369999998,1192,1211,0.8202728553565946,0.04317225554508392,1215.192792317701,-63.27218887554682,1214,0.9497896219918462,,1152.4553701112764
7,190.045883925,1209,1218,0.837733819880384,0.09308153554226489,1218.873594798345,-366.8316085505294,1239,2.7924460662679467,,1139.3789201118282
8,190.59058879999998,1229,1221,0.8116271105193998,-0.10145338881492498,1222.2421019109145,-573.930944453251,1242,-1.3188940545940246,,1131.3833350272864
9,191.135188325,1233,1216,0.8262856362484797,-0.04860503742638116,1225.3107032717942,-688.6985066692368,1244,-0.5346554116901928,,1128.2664294100161
10,191.67968249999998,1238,1226,0.8012221689422371,-0.06676851407851976,1228.0917884973699,-715.2626052840087,1251,-0.8679906830207569,,1129.8260178123824
11,192.22407132499998,1230,1231,0.7775424502505143,0.7775424502505143,1230.5977472040263,-657.7515503830928,1242,9.330509403006172,,1135.8599147867503
12,192.7683548,1226,1226,0.7753865851703869,inf,1232.8409690081487,-520.2936520520143,1233,inf,,1146.1659348854848
13,193.312532925,1228,1212,0.7956261498651602,-0.049726634366572514,1234.8338435261223,-307.01722037629406,1233,-0.24863317183286257,,1160.5418926609511
14,193.8566057,1238,1211,0.7908861747409445,-0.029292080545960907,1236.5887603743322,-22.05056544146146,1251,-0.3807970470974918,,1178.7856026655143
15,194.400573125,1247,1226,0.7942231778648126,-0.03782015132689583,1238.118109169164,330.47800266696277,1254,-0.26474105928827085,,1200.694879451539
16,194.9444352,1246,1237,0.7947581770897779,-0.08830646412108643,1239.4342795270022,746.4401738634542,1253,-0.618145248847605,,1226.0675375713906
17,195.488191925,1247,1241,0.7914877943554887,-0.13191463239258144,1240.5496610642324,1221.7076380624885,1262,-1.9787194858887216,,1254.7013915774344
18,196.0318433,1259,1255,0.7911116722494277,-0.19777791806235692,1241.4766433972397,1752.15208517854,1272,-2.57111293481064,,1286.3942560220348
19,196.575389325,1250,1247,0.7900325230816138,-0.2633441743605379,1242.2276161424095,2333.645205126084,1266,-4.213506789768607,,1320.9439454575574
20,197.11883,1236,1238,0.798472358442206,0.399236179221103,1242.8149689161264,2962.0586878195977,1257,8.383959763643162,,1358.148274436367
21,197.662165325,1244,1245,0.7981102791346143,0.7981102791346143,1243.2510913347762,3633.2642231735576,1268,19.154646699230742,,1397.8050575108289
22,198.2053953,1248,1246,0.8040599544843242,-0.4020299772421621,1243.5483730147437,4343.133501102442,1276,-11.25683936278054,,1439.712109233308
23,198.74851992499998,1240,1245,0.8074165803696804,0.1614833160739361,1243.7192035724142,5087.538211520716,1260,3.229666321478722,,1483.667244156169
24,199.2915392,1246,1249,0.8060625325032217,0.26868751083440723,1243.775972624173,5862.350044342863,1257,2.9555626191784796,,1529.4682768317775
25,199.83445312499998,1270,1264,0.8122546130835153,-0.13537576884725255,1243.731069786381,6663.440689483212,1281,-1.489133457319778,inf,1576.913021812468
26,200.3772617,1252,2252,0.8144257223941842,0.0008144257223941842,1244.578314344582,7377.250152891204,1341,0.0724838892930824,inf,1620.2529842125218
27,200.919964925,1232,6391,0.8150182986479615,0.0001579798989431986,1245.2053274139605,8107.469251851529,1569,0.053239225943857924,inf,1664.1359940202178
28,201.4625628,1235,11155,0.8232603193402961,8.298995154640081e-05,1245.06740809529,8857.350200457371,1823,0.04879809150928368,inf,1708.5454030668545
29,202.005055325,1223,13135,0.8194894939197722,6.879528995296947e-05,1244.8089424448785,9624.433056241181,1946,0.04973899463599692,inf,1754.613830437802
30,202.5474425,1224,14065,0.8269202298982968,6.439687173104095e-05,1244.7242293143433,10404.31284966797,1998,0.049843178719825694,inf,1802.6738770979744
31,203.089724325,1229,14749,0.8298864771900701,6.13821358868395e-05,1244.3120795487769,11197.372148859327,2042,0.04990367647600052,inf,1851.624091145857
32,203.63190079999998,1240,15417,0.8293789756785952,5.850172643567717e-05,1243.1115087544215,12005.320324355927,2085,0.04943395883814721,-inf,1901.8939047316678
33,204.173971925,1242,15893,0.8303112569560028,5.6672667869497156e-05,1242.3814582436507,12826.837618065847,2121,0.049815275057288,-inf,1954.2855557316893
34,204.71593769999998,1248,16238,0.832804584655424,5.555734387294356e-05,1242.4621395727863,13652.389635099062,2160,0.050668297612124526,-inf,2007.3913791931482
35,205.257798125,1250,16596,0.8371769300637781,5.455342956234707e-05,1242.2099028290322,14473.928333597314,2180,0.05073468949298277,-inf,2060.6513624317254
36,205.7995532,1239,17046,0.8381556767340916,5.302433584703559e-05,1241.8814016172269,15287.399578699113,2214,0.051698727450859704,-inf,2113.9180049377837
37,206.34120292499998,1244,17665,0.840625124319978,5.1192078699225265e-05,1241.3891367867664,16093.96437065361,2264,0.05221592027320977,-inf,2167.06018256355
38,206.88274729999998,1248,18300,0.8415937915656597,4.935455029120688e-05,1240.82291784636,16891.341230831633,2299,0.05187163235605843,0.2765056225551227,2219.9970780764706
39,207.424186325,1236,18684,0.8431564976534377,4.8323962497331366e-05,1240.221522571269,17669.077170490502,2305,0.05165831590964723,0.23278248405700583,2272.090307821198
40,207.96552,1231,18974,0.844165982526256,4.7577409825072196e-05,1239.9332261206132,18424.092504926142,2326,0.052097263758454054,0.18071970621948302,2323.9642347504596
41,208.506748325,1229,19325,0.8476484869242688,4.68417598875038e-05,1240.019773947291,19162.136243176148,2373,0.053586973311304346,0.12750084450234794,2375.5761625404425
42,209.0478713,1237,19774,0.8491768105118729,4.580982955774251e-05,1239.864119232575,19880.361525741988,2424,0.05437626768504036,0.05851235812310668,2426.6853835873508
43,209.588888925,1245,20367,0.8502736512177026,4.446572802100735e-05,1239.3810958345364,20570.084984936973,2466,0.05429265391364998,-0.06109145856525487,2476.5836145778594
44,210.12980119999997,1248,20849,0.8513731200582484,4.343518800358392e-05,1239.7319531585983,21229.183967926387,2494,0.05412024425246556,-0.21474317972858933,2525.5296609209236
45,210.670608125,1246,21310,0.8534308197221572,4.253542761773112e-05,1240.2081360845987,21843.208589095597,2531,0.05465802448878449,-0.44047922069917916,2572.505945774487
46,211.2113097,1245,21742,0.8557212941711507,4.17486117076231e-05,1240.1319395682565,22411.138077872227,2560,0.05489942439552438,-0.2871919319496778,2617.2112392126155
47,211.751905925,1243,22025,0.8575135521308375,4.126232086088141e-05,1240.2075471697876,22930.38707558451,2587,0.05545655923702461,0.26053501149381825,2659.346168656091
48,212.29239679999998,1241,22397,0.8580327959771828,4.055742087243254e-05,1240.3335975899554,23389.557113410956,2633,0.056455929854426094,-0.0655938994341787,2698.2838116378107
49,212.83278232499998,1242,22827,0.8587529108532552,3.978470747524926e-05,1240.5054701125496,23792.571202065275,2672,0.05689213168960644,0.011477374115365948,2733.756279870386
50,213.37306249999997,1244,23277,0.8598387128136875,3.902504029472552e-05,1240.9380959930904,24141.7325194224,2713,0.05732778419295179,0.09770418008723987,2766.093999864044
51,213.91323732499998,1240,23856,0.8611437003932625,3.807674656850294e-05,1241.2361321887008,24428.39257967291,2763,0.05799088502382998,0.05699489216691336,2795.2623388977695
52,214.45330679999998,1238,24549,0.8624756676121401,3.6998655896878734e-05,1240.8139482207741,24686.515164555913,2833,0.059012856155521584,0.058009128367162266,2823.4380620172055
53,214.993270925,1251,25061,0.8630074298534857,3.6245587142103555e-05,1239.022197558245,25023.272214545716,2899,0.05973272761018666,0.05852864213073209,2855.830641690584
54,215.5331297,1238,25573,0.8629495266956824,3.546125032651253e-05,1236.9182540940667,25470.755736256277,2924,0.05978766805050012,0.05891945098728169,2894.1713515594365
55,216.07288312499998,1228,26166,0.8648478670709356,3.4679920886636286e-05,1235.8418537225973,25957.847131304854,2949,0.059684143845901046,0.05930171097324729,2935.6613739834993
56,216.61253119999998,1232,26674,0.8650803831098881,3.400205892264319e-05,1235.7841174205296,26453.66429590654,2999,0.060081638116310516,0.059655008227037606,2977.850936600999
57,217.152073925,1246,27017,0.8652291434094919,3.357375124789461e-05,1236.3427937212384,26957.519377561828,3032,0.05996271972873977,0.059978779312964164,3020.541212711442
58,217.69151129999997,1240,27256,0.8680312398394996,3.336528443417511e-05,1237.2308093048302,27474.141973770118,3050,0.06039116482585695,0.06024779721011892,3063.342499263798
59,218.230843325,1227,27680,0.868212549145114,3.2820948442335995e-05,1238.0659584588313,28002.72570160086,3088,0.06107978505118729,0.06050235627871173,3106.9689687195037
60,218.77006999999998,1239,28264,0.868144571802742,3.212375843858435e-05,1238.944438152596,28536.7644114244,3139,0.06103514103331026,0.06076056826121615,3151.4914494098925
61,219.30919132499997,1246,28914,0.8681762475955156,3.137835216117954e-05,1239.84502480235,29072.026184057977,3197,0.06121916506646129,0.060993314718880295,3195.7876509093594
62,219.84820729999998,1243,29422,0.868951283960652,3.083683892120558e-05,1240.4203492717602,29610.557589072792,3238,0.06151949364780514,0.06122517657123926,3240.0934109492237
63,220.38711792499998,1239,29875,0.8691522224557424,3.035173286966554e-05,1241.0409295793552,30159.395637499707,3272,0.06170507292403004,0.061442903313766055,3284.882171736556
64,220.9259232,1239,30563,0.8692686507714266,2.9643590600580635e-05,1241.7432331422895,30725.01474552026,3329,0.06195510435521353,0.06161840787095708,3330.1130716436883
65,221.464623125,1236,31279,0.8701622824311823,2.8963894498924286e-05,1242.0932976964132,31299.522888400046,3379,0.06206962591119474,0.06176942888992357,3375.623049219623
66,222.0032177,1231,31698,0.86932404321908,2.8533299741329308e-05,1242.1896532197547,31874.665337832637,3409,0.062145526836615235,0.061902586007632494,3420.7931323472126
67,222.54170692499997,1238,32054,0.8705973257298546,2.8251470850527473e-05,1242.531269111394,32447.05873292651,3432,0.06198372704605728,0.0620387089427887,3465.8186368886513
68,223.0800908,1252,32545,0.8704844215444587,2.7817224987839413e-05,1242.8928401549058,33018.556094135136,3480,0.06197677727290621,0.062171165582262614,3510.8138576184515
69,223.61836932499997,1239,32969,0.8703398065724872,2.7429555832728874e-05,1243.1219733176051,33592.9254569746,3513,0.06237480996362546,0.0622697490066384,3555.0656866519516
70,224.1565425,1227,33734,0.8697053263836744,2.6754401402272567e-05,1243.4027950802724,34166.42666878006,3555,0.06228424646449054,0.062344636002023786,3599.063081836439
71,224.69461032499999,1230,34424,0.8700422735223692,2.621082947286766e-05,1243.4927404923997,34735.82033568078,3593,0.06193619004438628,0.062417711323561074,3642.9076989285577
72,225.23257279999999,1231,35096,0.8700397124616915,2.5691413331217823e-05,1243.5228204489106,35300.001155178375,3653,0.06222460308820957,0.06246764954451229,3685.7109107793344
73,225.77042992499997,1233,36048,0.8700678242154535,2.499117691269434e-05,1243.573625676662,35854.71322113682,3728,0.062352986397172384,0.06249795330181631,3727.245758680759
74,226.30818169999998,1222,36761,0.8699872642519537,2.447979020940245e-05,1243.4629096921547,36399.360914176286,3781,0.06264378314586087,0.06252033006787919,3767.5496387233416
75,226.84582812499997,1216,37246,0.8700242014773532,2.414721624971838e-05,1243.2987836643854,36939.34659901626,3824,0.06297593997926554,0.06253476123895135,3807.3948673808413
76,227.3833692,1247,37869,0.8696880407569096,2.3747693756673848e-05,1243.2210922104452,37471.50248023666,3888,0.06271765921137563,0.06254126376105018,3846.582527350489
77,227.92080492499997,1261,38228,0.87010037851645,2.353721910126464e-05,1243.184738046138,37991.81816122602,3911,0.06237363061835129,0.06253715591126245,3884.4694330561674
78,228.45813529999998,1296,38384,0.8693067287349536,2.3439029571153842e-05,1243.1006591315531,38504.154612787774,3939,0.0619493551565596,0.06254355189900229,3921.882987157052
79,228.99536032499998,1322,38755,0.8691277262341458,2.321822259060577e-05,1243.2820901945447,38999.86522910977,3969,0.06145863519733348,0.06256982426298643,3959.141248952335
80,229.53248,1285,39287,0.86926662631248,2.287423362750592e-05,1243.3955921991198,39472.70715078408,3988,0.0618290534951485,0.06257977721133288,3994.1766517927153
81,230.069494325,1253,40023,0.8686441253792921,2.2405058689174417e-05,1243.0108722734137,39933.188339485976,4026,0.06212922774508066,0.06258165330975009,4027.7893497020673
82,230.60640329999998,1234,40626,0.868302707705708,2.204261544744385e-05,1242.6339894448106,40372.84815058022,4064,0.062380601716266096,0.06259474928285108,4060.3841763119563
83,231.143206925,1230,41091,0.8687016218294412,2.179327216651467e-05,1242.9448458628494,40772.73865772646,4116,0.06289538347256134,0.0625840686105575,4089.9016965275887
84,231.67990519999998,1231,41380,0.8683284847277679,2.1627649125202817e-05,1243.0852340936135,41128.9134748231,4136,0.06282832070871418,0.06256021840890717,4115.421459149619
85,232.216498125,1234,41703,0.8683608504247778,2.1457432860332052e-05,1242.6599696482128,41458.23522616515,4152,0.06261278908644893,0.06253732929451562,4138.258420349192
86,232.75298569999998,1235,42129,0.868249886800152,2.1231718266742115e-05,1242.375365240412,41768.532673445945,4182,0.06256987373208901,0.06250359358020642,4159.538064282237
87,233.289367925,1234,42543,0.867778574191436,2.1007009954039943e-05,1242.5752565176774,42050.82248748475,4214,0.06260088966303903,0.06246388345443818,4179.093546852623
88,233.8256448,1236,42869,0.8676471171202086,2.084036982970741e-05,1243.0096491426518,42293.98194749517,4245,0.0627086728175896,0.06242036480061465,4195.7907087362455
89,234.36181632499998,1237,42962,0.8677489292852631,2.0796858700665385e-05,1243.4072572424955,42491.16306145018,4260,0.06286890385211145,0.06236960197099661,4208.737751704374
90,234.89788249999998,1236,42994,0.8672589311593729,2.076868938070245e-05,1243.6080545425477,42664.0653921938,4240,0.062389142899630164,0.062318612135792116,4219.7431651905235
91,235.433843325,1237,43105,0.8668004592010585,2.0703173287500202e-05,1243.086208068109,42822.47686244227,4242,0.062213035728938104,0.06228210054889336,4229.664726267784
92,235.9696988,1222,43299,0.8665578153052318,2.0594572220101997e-05,1242.5691182132991,42948.01614985534,4257,0.06250452668800956,0.0622505253855469,4237.5294117646245
93,236.505448925,1224,43457,0.8666098942893835,2.0519733248629828e-05,1242.0373960904878,43034.47119979985,4270,0.06250310747532646,0.062208125655948965,4242.006319508853
94,237.04109369999998,1234,43579,0.8664654382940954,2.0462048371569145e-05,1241.5336700717783,43090.293211623444,4297,0.06267525416211629,0.06215850681761726,4244.0331377833345
95,237.576633125,1235,43664,0.8658853313998153,2.0407865643777023e-05,1241.1346576366157,43110.63537112876,4288,0.06230521381045125,0.06210366758498497,4243.27515912017
96,238.11206719999998,1240,43774,0.8659634438688039,2.035932298558339e-05,1240.6749869758987,43098.2943668025,4275,0.06179054526124559,0.062039971011332226,4239.779474053692
97,238.64739592499998,1242,43823,0.8653764850454776,2.0323066274758168e-05,1240.3531676821433,43062.19309610555,4276,0.06166018307761628,0.061979985790938164,4234.90477700506
98,239.1826193,1240,43767,0.865240351462597,2.0345671019883768e-05,1240.1790754037227,43017.245917233995,4275,0.061749111545347235,0.061935067806953945,4230.312940270367
99,239.71773732499997,1244,43706,0.8654717432609225,2.0382265160871425e-05,1239.9128859090567,42983.319961946225,4287,0.062023232884531744,0.061888258858291786,4226.4052186911695
100,240.25275,1248,43399,0.8654328986505,2.0531728752591872e-05,1239.291444879815,42952.23853314828,4260,0.06184156700280672,0.061835239793708384,4221.849690819643
101,240.787657325,1249,43087,0.8649750843904328,2.0674388938057097e-05,1238.715486194454,42916.64825930291,4232,0.06167170220222432,0.061776976969355094,4216.504586740276
102,241.3224593,1245,42944,0.8650023747478218,2.0743959681235085e-05,1238.705316088676,42891.38383655267,4229,0.061899975688805495,0.061719777159796374,4212.475933769654
103,241.85715592499997,1245,42727,0.864426750181391,2.0838598673675114e-05,1239.3036761874323,42867.60821309574,4217,0.06193231525816244,0.061660619680289436,4209.0529570317885
104,242.3917472,1251,42563,0.8640504083213235,2.091524032536124e-05,1241.077963260752,42833.55444064337,4189,0.06144897607591133,0.06158811165671651,4205.493623864559
105,242.92623312499998,1242,42560,0.8638615542876957,2.0907632370581726e-05,1243.5475548709812,42803.6064463513,4186,0.0615520696989926,0.061491548043926814,4201.798953543601
106,243.46061369999998,1248,42227,0.8647030136247108,2.1101125298926542e-05,1245.397925207795,42793.14090919305,4147,0.06117216224158804,0.06140592682741568,4199.3552062333565
107,243.994888925,1251,42028,0.863747888775786,2.1182232355881648e-05,1246.670388910257,42801.02292237568,4110,0.060560002305465634,0.06132221426816515,4197.677976851037
108,244.52905879999997,1242,42276,0.8628771528607923,2.1028346075468934e-05,1247.3196221884739,42820.5824820486,4123,0.060582665043426,0.06123870783302083,4196.246619402397
109,245.063123325,1242,42544,0.8633129275796555,2.090244849110589e-05,1247.8605857437076,42854.94251285338,4153,0.06084702755760925,0.06117496167331967,4196.630433305318
110,245.59708249999997,1247,42384,0.8623491049005171,2.0962858373253204e-05,1248.2488618088505,42911.92310131518,4159,0.06104384358291333,0.06111638908248778,4198.717456793958
111,246.130936325,1254,42057,0.862505803534046,2.113829383952273e-05,1248.3528279235982,43005.55156402101,4139,0.06098397772702308,0.06105571349908206,4203.006455412273
112,246.66468479999997,1246,42086,0.8631762817630669,2.1135560278233764e-05,1248.2071168089637,43139.03286597576,4132,0.06099722696298264,0.06100173743899108,4210.208181385681
113,247.19832792499997,1235,42395,0.8629529675416884,2.0965815537941893e-05,1248.0669550838966,43311.35210310457,4150,0.06111535229310062,0.060952115616157605,4220.407732904402
114,247.7318657,1230,42961,0.8621360146885437,2.065936629097179e-05,1248.1737751704218,43520.241930733726,4198,0.061316999151604275,0.06090411973453098,4233.39844617084
115,248.265298125,1234,43108,0.8624878814902607,2.0597217401974034e-05,1248.464246075765,43758.260572152554,4216,0.06142090229268657,0.06087153507655347,4249.41190060922
116,248.79862519999998,1255,42996,0.862427427307537,2.066139832077662e-05,1248.7321117125857,44016.61417019553,4202,0.0608891408513287,0.060826451669327576,4266.182540940823
117,249.33184692499998,1250,43244,0.8621956715984717,2.0531401428739144e-05,1249.072595075742,44287.568891706775,4201,0.060588165616209215,0.0607720612496092,4283.427801309121
118,249.8649633,1258,43695,0.8614594306460737,2.0299725019348062e-05,1248.8123853314673,44587.445672607806,4241,0.06055407973271527,0.06072611521986932,4302.47196991996
