,x_(nm),baseline_dark,baseline_light,baseline_mirror,baseline_calibration,baseline_dark_smoothed,baseline_light_smoothed,raw_signal,calibrated_signal,calibrated_signal_smoothed,raw_signal_smoothed
0,186.23,1019,1019,0.3621226043733797,inf,1003.9630167177331,3740.1220802463986,1010,-inf,,1178.759248192101
1,186.775442325,1026,1018,1.18800459154587,-0.14850057394323374,1011.4041884452535,2806.5101770429287,996,4.455017218297012,,1117.3475536836252
2,187.3207793,1023,1023,1.908567993433533,inf,1018.3347103589053,1989.7765986575332,996,-inf,,1064.1426025788485
3,187.86601092499998,1014,1019,1.7279185264672412,0.34558370529344823,1024.7705395397957,1285.92977180552,997,-5.87492298998862,,1018.8579553317865
4,188.41113719999998,1015,1011,1.043047789334166,-0.2607619473335415,1030.7276330690313,690.9781232021974,992,5.997524788671455,,981.2071723964546
5,188.956158125,1021,1014,0.840365554154959,-0.12005222202213699,1036.2219480277192,200.9300795628733,991,3.6015666606641097,,950.9038142268685
6,189.50107369999998,1029,1011,0.8202728553565946,-0.04557071418647748,1041.2694414969665,-188.2059323971448,992,1.6861164248996667,,927.6614412770434
7,190.045883925,1049,1032,0.837733819880384,-0.04927845999296376,1045.8860705578797,-480.421485962549,1015,1.675467639760768,,911.1936140009952
8,190.59058879999998,1058,1044,0.8116271105193998,-0.05797336503709999,1050.0877922915658,-679.708154418031,1032,1.5073074909645996,,901.213892852739
9,191.135188325,1061,1045,0.8262856362484797,-0.05164285226552998,1053.8905637791322,-790.0575110482823,1030,1.6009284202314296,,897.4358382862906
10,191.67968249999998,1071,1058,0.8012221689422371,-0.06163247453401824,1057.3103421016851,-815.4611291379961,1035,2.2187690832246565,,899.5730107556653
11,192.22407132499998,1056,1049,0.7775424502505143,-0.1110774928929306,1060.363084340332,-759.9105819718634,1035,2.3326273507515425,,907.3389707148789
12,192.7683548,1046,1042,0.7753865851703869,-0.19384664629259674,1063.0647475761796,-627.3974428345773,1029,3.2953929869741447,,920.4472786179466
13,193.312532925,1046,1041,0.7956261498651602,-0.15912522997303205,1065.4312888903346,-421.913285010829,1030,2.546003679568513,,938.6114949188841
14,193.8566057,1053,1048,0.7908861747409445,-0.1581772349481889,1067.4786653639042,-147.44968178531144,1045,1.265417879585511,,961.5451800717067
15,194.400573125,1061,1064,0.7942231778648126,0.26474105928827085,1069.2228340779952,192.00179355728687,1061,0.0,,988.9618945304301
16,194.9444352,1072,1065,0.7947581770897779,-0.11353688244139684,1070.6797521137146,592.4495677322675,1074,-0.22707376488279368,,1020.5751987490696
17,195.488191925,1082,1071,0.7914877943554887,-0.07195343585049897,1071.8653765521692,1049.902067454942,1080,0.14390687170099795,,1056.0986531816409
18,196.0318433,1081,1074,0.7911116722494277,-0.11301595317848967,1072.7956644744659,1560.367719440621,1077,0.4520638127139587,,1095.2458182821592
19,196.575389325,1082,1072,0.7900325230816138,-0.07900325230816138,1073.4865729617118,2119.85495040461,1065,1.3430552892387435,,1137.7302545046407
20,197.11883,1075,1079,0.798472358442206,0.1996180896105515,1073.9540590950137,2724.3721870622126,1048,-5.389688419484891,,1183.2655223031002
21,197.662165325,1090,1083,0.7981102791346143,-0.11401575416208776,1074.2140799554784,3369.927856128741,1057,3.762519887348896,,1231.5651821315535
22,198.2053953,1097,1072,0.8040599544843242,-0.03216239817937297,1074.282592624213,4052.530384319506,1067,0.9648719453811891,,1282.3427944440157
23,198.74851992499998,1082,1065,0.8074165803696804,-0.047495092962922376,1074.1755541823245,4768.188198349815,1055,1.2823675099989043,,1335.3119196945033
24,199.2915392,1073,1075,0.8060625325032217,0.40303126625161084,1073.9089217109195,5512.909724934964,1062,-4.433343928767719,,1390.1861183370306
25,199.83445312499998,1095,1100,0.8122546130835153,0.16245092261670308,1073.4986522910845,6282.703390790159,1084,-1.7869601487837339,inf,1446.6789508255856
26,200.3772617,1087,2055,0.8144257223941842,0.0008413488867708514,1072.960384153641,6966.978844367803,1152,0.05468767764010534,inf,1497.5758001313447
27,200.919964925,1063,6009,0.8150182986479615,0.00016478331958106782,1072.374572470477,7667.637092572731,1441,0.062288094801643636,inf,1548.3194862850505
28,201.4625628,1056,10566,0.8232603193402961,8.656785692326982e-05,1071.6910009286528,8386.299304627351,1753,0.060337796275519065,-0.01270945185197751,1599.8297130172516
29,202.005055325,1060,12519,0.8194894939197722,7.151492223752267e-05,1071.25783143444,9121.455253799459,1899,0.06000101975728152,-0.29061883577093517,1652.7191102855923
30,202.5474425,1060,13363,0.8269202298982968,6.721289359491968e-05,1070.6913859883368,9868.493306756476,1978,0.06170143632013626,-0.22307220208531975,1706.4784253323646
31,203.089724325,1064,14020,0.8298864771900701,6.40542202215244e-05,1069.6147817617407,10626.578540850098,2020,0.061235834531777326,-0.2026494476650646,1760.0404765679518
32,203.63190079999998,1072,14694,0.8293789756785952,6.088525735417672e-05,1068.3832702892273,11398.845273958423,2064,0.060398175295343304,-0.22682322744760325,1813.6247706629476
33,204.173971925,1064,15182,0.8303112569560028,5.881224372829033e-05,1067.7274909963778,12184.12031982581,2089,0.06028254982149759,-0.2445277230251818,1868.8202450791277
34,204.71593769999998,1059,15533,0.832804584655424,5.7537970475018924e-05,1067.3829758318218,12971.503069151942,2103,0.06006964117591976,-0.2605495380665533,1925.019909850696
35,205.257798125,1066,15815,0.8371769300637781,5.676160621491478e-05,1067.2397789304196,13755.237015560679,2126,0.06016730258780967,-0.2670717955604996,1980.6149403157108
36,205.7995532,1060,16224,0.8381556767340916,5.527272993498362e-05,1067.7513873473713,14532.173752519599,2167,0.06118691203802687,-0.2462226749022058,2035.4719246188652
37,206.34120292499998,1058,16804,0.840625124319978,5.3386582263430586e-05,1067.7952161996668,15302.653695440147,2207,0.06134118302068174,-0.21024938335430196,2090.1771048041455
38,206.88274729999998,1059,17425,0.8415937915656597,5.142330389622753e-05,1067.244037237516,16064.723685700386,2240,0.06073092190144471,-0.1304724015903894,2143.9202246936097
39,207.424186325,1053,17778,0.8431564976534377,5.041294455326982e-05,1066.3852861899272,16808.736279417102,2256,0.06064677229758359,-0.05610193954847817,2195.9595234319722
40,207.96552,1051,18083,0.844165982526256,4.956352645175293e-05,1065.5192869600464,17533.5200570791,2278,0.060814446956300845,-0.008100024765793495,2247.4703617295545
41,208.506748325,1062,18468,0.8476484869242688,4.869863764933177e-05,1064.4888898955605,18241.20949511845,2299,0.0602402147722234,0.006907054955615783,2298.594169743325
42,209.0478713,1075,18885,0.8491768105118729,4.7679775997297746e-05,1063.4719472694535,18927.120795487645,2335,0.06007651775659516,0.01522457119671719,2348.2885229563076
43,209.588888925,1074,19390,0.8502736512177026,4.642245311299971e-05,1062.7526331287029,19586.850619492703,2387,0.060952680937368615,0.03484502454044244,2395.6836621440566
44,210.12980119999997,1068,19795,0.8513731200582484,4.546233353223946e-05,1062.4323767242543,20218.351967201586,2414,0.06119230093439431,0.06589967408227664,2440.95737162785
45,210.670608125,1059,20240,0.8534308197221572,4.4493551937967636e-05,1062.5451086094613,20808.24308591321,2431,0.061045153258891593,0.12916556660303663,2483.4023420688554
46,211.2113097,1049,20673,0.8557212941711507,4.360585477839129e-05,1062.5158893745975,21351.712224512034,2457,0.06139704352797494,-0.017023625463144367,2522.395841355362
47,211.751905925,1052,20939,0.8575135521308375,4.311930166092611e-05,1062.8054089560148,21846.90153797326,2481,0.06161748207346341,0.10207239990722283,2557.7634147998333
48,212.29239679999998,1065,21261,0.8580327959771828,4.2485284015507175e-05,1063.822668690097,22284.785046093482,2506,0.06122129426634584,0.15281058960877114,2589.004847221858
49,212.83278232499998,1060,21699,0.8587529108532552,4.160826158502133e-05,1064.9659108926385,22669.789259099438,2537,0.0614554023610765,0.2202191197368616,2616.2573331218778
50,213.37306249999997,1070,22174,0.8598387128136875,4.0742926118919994e-05,1065.7994292056242,23003.55573172621,2566,0.06095141747390431,0.11086660849758535,2640.1454393077483
51,213.91323732499998,1083,22712,0.8611437003932625,3.9814309510068076e-05,1066.5356406713424,23277.71075222497,2600,0.06039830752677327,0.0617704487665117,2660.1973091122736
52,214.45330679999998,1089,23342,0.8624756676121401,3.875772559260055e-05,1067.1343178780744,23524.03157489366,2668,0.06119844871071627,0.06170397710391841,2678.5921085414784
53,214.993270925,1087,23865,0.8630074298534857,3.7887761430041514e-05,1066.3625450179868,23843.7019864545,2716,0.06171916336953762,0.0618424893427344,2701.515866723996
54,215.5331297,1063,24354,0.8629495266956824,3.7050771830135346e-05,1064.875036807155,24271.049015832283,2738,0.0620600428154767,0.06191630848286919,2730.9297605834263
55,216.07288312499998,1058,24918,0.8648478670709356,3.624676727036612e-05,1064.5636820765837,24737.547373665973,2762,0.061764491428703876,0.061971986586789166,2764.2429047090004
56,216.61253119999998,1072,25444,0.8650803831098881,3.549484585220286e-05,1065.074520374167,25209.865523567438,2820,0.0620449905496506,0.062085919148971276,2799.76128564628
57,217.152073925,1079,25752,0.8652291434094919,3.506785325698099e-05,1066.4191034904325,25690.7092799379,2869,0.06277145732999596,0.06218581358645022,2836.4544836802097
58,217.69151129999997,1076,25989,0.8680312398394996,3.4842501498795795e-05,1068.3931459376,26186.350698769573,2880,0.06285587270382761,0.062252437864874645,2874.320822668635
59,218.230843325,1073,26468,0.868212549145114,3.418832640854948e-05,1069.8195202609143,26696.229654125287,2898,0.062393695695602804,0.062314627401782466,2912.8603139368397
60,218.77006999999998,1068,27040,0.868144571802742,3.342617325591953e-05,1070.4405762304718,27214.430292871344,2945,0.06274092720136096,0.062372483659604336,2951.50923010708
61,219.30919132499997,1054,27648,0.8681762475955156,3.264556845888229e-05,1071.0166481686808,27733.021812498053,2999,0.06349563065252606,0.06242318526666638,2989.9529321161854
62,219.84820729999998,1051,28125,0.868951283960652,3.209541567410254e-05,1071.8495775668553,28253.409726154066,3021,0.063227968877982,0.062493375695841416,3029.050691974845
63,220.38711792499998,1055,28549,0.8691522224557424,3.161243262005319e-05,1072.4886633898636,28785.617477178996,3054,0.06319325280748633,0.06255933672288734,3068.626741262484
64,220.9259232,1059,29199,0.8692686507714266,3.0890854682708833e-05,1073.0508731794398,29335.58522276779,3112,0.06341892466360123,0.06258795861495678,3108.4116967541136
65,221.464623125,1061,29804,0.8701622824311823,3.0273885204438728e-05,1073.4473714013702,29894.689143581392,3138,0.06287885956961924,0.06261952174861769,3149.111055742991
66,222.0032177,1072,30228,0.86932404321908,2.9816300014373713e-05,1073.2636752814128,30455.817164601107,3151,0.06198808772988295,0.06266849319429661,3190.338626016383
67,222.54170692499997,1084,30657,0.8705973257298546,2.9438924888575884e-05,1073.273165870101,31016.263041064893,3188,0.06193949796556366,0.0626944220024165,3231.266687807137
68,223.0800908,1089,31099,0.8704844215444587,2.900647855862908e-05,1073.746449523185,31577.448435977563,3242,0.062450948336728415,0.06269442137072209,3271.949896939845
69,223.61836932499997,1080,31456,0.8703398065724872,2.865221907336342e-05,1074.368547418947,32138.344696368495,3273,0.06283431642788598,0.06270279355518334,3312.795646560448
70,224.1565425,1070,32129,0.8697053263836744,2.800171693820388e-05,1075.0191397313438,32696.64551858417,3307,0.06263984079076208,0.06270917775148269,3353.4114249472727
71,224.69461032499999,1070,32875,0.8700422735223692,2.7355518739895275e-05,1075.1177376610817,33253.60438514965,3344,0.062206449614521854,0.06269584786827428,3392.81009762389
72,225.23257279999999,1078,33580,0.8700397124616915,2.676880538002866e-05,1074.427688056334,33805.89995243315,3404,0.062264241313946665,0.06268198906351055,3430.977168225716
73,225.77042992499997,1066,34483,0.8700678242154535,2.6036682653004562e-05,1073.728306416886,34348.06811026232,3479,0.0628265152417,0.06266141630904709,3468.0731386893717
74,226.30818169999998,1049,35134,0.8699872642519537,2.552405058682569e-05,1073.329429885141,34877.88708690956,3520,0.06306992900004628,0.06262046280782242,3504.1154046523598
75,226.84582812499997,1049,35594,0.8700242014773532,2.518524248016654e-05,1072.7262225644768,35401.451199346986,3546,0.06288755047297585,0.06257761332546975,3539.469795465288
76,227.3833692,1077,36195,0.8696880407569096,2.4764737193374042e-05,1072.1916917710273,35916.830709641654,3594,0.062332843515722464,0.06251732769320353,3573.963804389612
77,227.92080492499997,1081,36572,0.87010037851645,2.4516085162899045e-05,1071.8705972955013,36418.55700015786,3610,0.062001179376971687,0.062426928390473445,3606.873360664952
78,228.45813529999998,1111,36795,0.8693067287349536,2.436124674181576e-05,1071.906136039301,36909.350970576204,3660,0.062096817944888374,0.062341706779226756,3639.2459851864573
79,228.99536032499998,1138,37107,0.8691277262341458,2.416324407779326e-05,1072.4243584225937,37382.29081066317,3719,0.06236533296478441,0.06226442347252832,3671.002265056896
80,229.53248,1111,37653,0.86926662631248,2.37881513412643e-05,1072.525674420691,37830.08276518082,3737,0.06246768542216005,0.06218861003313128,3700.622097895691
81,230.069494325,1087,38429,0.8686441253792921,2.326185328528981e-05,1072.1322793268043,38262.254547101125,3757,0.06210914827172379,0.062102054172480756,3728.4513352510107
82,230.60640329999998,1062,39014,0.868302707705708,2.2878971008265916e-05,1072.341162880226,38672.458334276365,3777,0.062116406287441965,0.0620157474466687,3755.1855308160284
83,231.143206925,1045,39441,0.8687016218294412,2.2624794817935232e-05,1073.1030147908016,39039.907585675035,3798,0.062286060133775696,0.061932207459398064,3779.2036059706174
84,231.67990519999998,1051,39691,0.8683284847277679,2.247226927349296e-05,1073.8331332532807,39360.9948809705,3814,0.062090880002661046,0.06184521845252533,3799.624476205503
85,232.216498125,1070,39948,0.8683608504247778,2.23355329601517e-05,1074.3182178531583,39652.439692857515,3832,0.061690742035939,0.061754683608451,3817.7124057169303
86,232.75298569999998,1078,40343,0.868249886800152,2.2112565562209398e-05,1074.2388502570634,39920.87909125837,3865,0.06162772022187759,0.06167839353265505,3834.2019071778923
87,233.289367925,1062,40778,0.867778574191436,2.1849596489863935e-05,1073.7829622414797,40158.251738430445,3885,0.061681410890885885,0.06162707512479588,3849.008493963549
88,233.8256448,1063,41019,0.8676471171202086,2.1715064498954064e-05,1073.186572742284,40351.97587714253,3909,0.06180107356402327,0.06157793048079858,3860.69290357645
89,234.36181632499998,1063,41059,0.8677489292852631,2.169589282141372e-05,1072.7578654102947,40495.35416430646,3934,0.062288908290278784,0.061533773590948825,3869.0879521619227
90,234.89788249999998,1058,41039,0.8672589311593729,2.1691776872999e-05,1072.757095290926,40609.092550226866,3910,0.06186494764179314,0.061505789175165554,3876.427302996596
91,235.433843325,1071,41102,0.8668004592010585,2.1653230226600846e-05,1072.9264536002875,40702.349249132836,3892,0.061083762469240986,0.061465315635467824,3882.01581009755
92,235.9696988,1073,41248,0.8665578153052318,2.1569578476794816e-05,1073.1713968606105,40762.558042083976,3891,0.060783072147607795,0.061401418935244895,3884.624997168604
93,236.505448925,1070,41301,0.8666098942893835,2.154084895452222e-05,1073.3732813880063,40782.0225599666,3897,0.06089597999443432,0.06133318912478523,3883.9917551925687
94,237.04109369999998,1064,41411,0.8664654382940954,2.147533740536088e-05,1073.4780629232619,40764.238714352876,3903,0.06096848289381954,0.06127878885801036,3881.109968515634
95,237.576633125,1055,41432,0.8658853313998153,2.144501402778352e-05,1073.4233844480982,40707.409499648136,3893,0.060860949810849635,0.06124476715768984,3876.1363337787207
96,238.11206719999998,1061,41363,0.8659634438688039,2.1486860301444192e-05,1073.3150467734058,40616.79464993467,3899,0.06097970953549862,0.061213075986014324,3868.9109153094464
97,238.64739592499998,1074,41306,0.8653764850454776,2.1509656120637243e-05,1073.301909443002,40504.940723458414,3909,0.06097987510200658,0.06117439216214263,3859.9015153230357
98,239.1826193,1074,41157,0.865240351462597,2.1586217385490034e-05,1073.65032050554,40383.017984551545,3906,0.06113216763570778,0.06114063771037017,3850.7961448729693
99,239.71773732499997,1075,41013,0.8654717432609225,2.16703826746688e-05,1073.7089401798248,40269.45733765127,3896,0.06113214952524068,0.06112239175732739,3842.693990803795
100,240.25275,1076,40652,0.8654328986505,2.1867619230101578e-05,1073.2008426011707,40158.929058415044,3871,0.06111999574813391,0.06111555353602358,3834.650750866311
101,240.787657325,1084,40264,0.8649750843904328,2.2076954680715487e-05,1072.4291376927924,40043.88178667617,3840,0.06084408710005188,0.061127338760787873,3826.924550952383
102,241.3224593,1094,40023,0.8650023747478218,2.2219999865083146e-05,1072.4995130127318,39938.39425581477,3831,0.06081613963073257,0.061136234017035065,3820.607737434523
103,241.85715592499997,1095,39709,0.864426750181391,2.2386355989573498e-05,1072.800901492652,39838.961765837645,3819,0.060980433715598206,0.06112466899703677,3813.8996126751854
104,242.3917472,1083,39454,0.8640504083213235,2.251831873866523e-05,1073.6411470248272,39737.596683955846,3788,0.06091205218808945,0.061118825431759595,3807.8786608982487
105,242.92623312499998,1075,39357,0.8638615542876957,2.2565737273070782e-05,1075.1366735373188,39642.18926815934,3777,0.06097262211183725,0.06112995448726175,3803.730390269242
106,243.46061369999998,1086,38951,0.8647030136247108,2.2836472035513294e-05,1076.65299327276,39570.964325352026,3749,0.0608135250305719,0.06114289183290065,3801.2807311603156
107,243.994888925,1080,38652,0.863747888775786,2.2989137889273556e-05,1077.971414981066,39526.08256132566,3727,0.0608522479929071,0.06114389257055973,3799.9499422409745
108,244.52905879999997,1069,38805,0.8628771528607923,2.286615308619865e-05,1078.3493397358736,39498.8867018498,3755,0.06141848718952957,0.06115287046626909,3799.494348682796
109,245.063123325,1067,38996,0.8633129275796555,2.2761288923505906e-05,1078.2050782576976,39492.44653332956,3779,0.06172861556054802,0.06118482310333113,3801.1813631112095
110,245.59708249999997,1072,38836,0.8623491049005171,2.2835216208572107e-05,1078.2153163151847,39516.86162766918,3764,0.06147240203347611,0.06121430758907573,3805.0650750865652
111,246.130936325,1087,38504,0.862505803534046,2.3051174694231127e-05,1078.6166617590225,39585.14906339818,3750,0.06138527821073749,0.061228252085562214,3811.617046818654
112,246.66468479999997,1086,38473,0.8631762817630669,2.3087604829568215e-05,1079.360098756463,39701.722168111766,3748,0.06145920405631059,0.06124241888581203,3821.885773177122
113,247.19832792499997,1086,38788,0.8629529675416884,2.2888784879892004e-05,1079.5545765475795,39868.54988787892,3766,0.061341943478110575,0.06126079784487262,3835.458719336718
114,247.7318657,1082,39371,0.8621360146885437,2.2516545605488356e-05,1079.284876214616,40079.44159550536,3806,0.06133507022935028,0.06128769928674628,3852.1381231737237
115,248.265298125,1068,39578,0.8624878814902607,2.2396465372377584e-05,1078.8144691838793,40328.775578155015,3802,0.061231936328080314,0.06134484771276689,3872.9123649459043
116,248.79862519999998,1059,39484,0.862427427307537,2.2444435323553335e-05,1078.3303812090667,40609.58717071657,3791,0.06131819730394771,0.06138603173425801,3895.073569050187
117,249.33184692499998,1063,39670,0.8621956715984717,2.2332625472025063e-05,1078.5872613196013,40913.3919001555,3808,0.061303056920708796,0.061380228666316566,3917.1347708894127
118,249.8649633,1076,40203,0.8614594306460737,2.201700694267574e-05,1079.2716482819335,41254.68465876837,3865,0.06140543236312264,0.06134832269078802,3940.7978663162626
