,x_(nm),baseline_dark,baseline_light,baseline_mirror,baseline_calibration,baseline_dark_smoothed,baseline_light_smoothed,raw_signal,calibrated_signal,calibrated_signal_smoothed,raw_signal_smoothed
0,186.23,1086,1095,0.3621226043733797,0.04023584493037552,1076.6878175879272,3785.7999816601573,1095,0.3621226043733797,,1322.5223098108788
1,186.775442325,1087,1080,1.18800459154587,-0.16971494164940998,1082.8046298667819,2856.9359805977074,1087,-0.0,,1244.5607495312274
2,187.3207793,1097,1073,1.908567993433533,-0.07952366639306387,1088.5816868918173,2044.436801845411,1072,1.9880916598265967,,1176.8298152223322
3,187.86601092499998,1094,1068,1.7279185264672412,-0.06645840486412466,1094.0281898987612,1344.3249279069928,1076,1.196251287554244,,1118.9704935417167
4,188.41113719999998,1088,1067,1.043047789334166,-0.049668942349246,1099.1533401233407,752.6228412861792,1094,-0.298013654095476,,1070.6237711469048
5,188.956158125,1082,1075,0.840365554154959,-0.12005222202213699,1103.9663388012832,265.3530244866952,1110,-3.361462216619836,,1031.4306346954204
6,189.50107369999998,1089,1079,0.8202728553565946,-0.08202728553565945,1108.476387168316,-121.46203998773308,1113,-1.9686548528558268,,1001.0320708447875
7,190.045883925,1117,1092,0.837733819880384,-0.03350935279521536,1112.6926864601662,-411.79986963338024,1118,-0.03350935279521536,,979.0690662525296
8,190.59058879999998,1131,1105,0.8116271105193998,-0.031216427327669223,1116.6244379125615,-609.6379819465214,1124,0.21851499129368457,,965.1826075761709
9,191.135188325,1134,1106,0.8262856362484797,-0.02951020129458856,1120.280842761229,-718.9538944234305,1141,-0.20657140906211993,,959.013681473235
10,191.67968249999998,1138,1118,0.8012221689422371,-0.04006110844711185,1123.671102241896,-743.7251245603834,1138,-0.0,,960.2032746012458
11,192.22407132499998,1124,1116,0.7775424502505143,-0.09719280628131428,1126.8044175902899,-687.9291898536517,1129,-0.4859640314065714,,968.3923736177269
12,192.7683548,1119,1107,0.7753865851703869,-0.06461554876419891,1129.6899900421379,-555.5436077995105,1124,-0.3230777438209945,,983.2219651802027
13,193.312532925,1123,1105,0.7956261498651602,-0.04420145277028668,1132.3370208331673,-350.54589589423585,1128,-0.22100726385143338,,1004.3330359461966
14,193.8566057,1131,1115,0.7908861747409445,-0.04943038592130903,1134.7547111991057,-76.91357163410203,1141,-0.4943038592130903,,1031.3665725732326
15,194.400573125,1141,1124,0.7942231778648126,-0.04671901046263603,1136.9522623756802,261.37584748461904,1152,-0.5139091150889964,,1063.9635617188342
16,194.9444352,1134,1133,0.7947581770897779,-0.7947581770897779,1138.938875598618,660.3448439656499,1145,-8.742339947987556,,1101.7649900405258
17,195.488191925,1135,1135,0.7914877943554887,inf,1140.7237521036468,1116.015900312716,1139,inf,,1144.4118441958312
18,196.0318433,1149,1133,0.7911116722494277,-0.04944447951558923,1142.3160931264936,1624.4114990295448,1150,-0.04944447951558923,,1191.5451108422735
19,196.575389325,1153,1132,0.7900325230816138,-0.0376205963372197,1143.7250999028859,2181.554122619864,1144,0.3385853670349773,,1242.8057766373774
20,197.11883,1140,1133,0.798472358442206,-0.114067479777458,1144.9599736685507,2783.4662535873945,1129,1.254742277552038,,1297.834828238666
21,197.662165325,1138,1139,0.7981102791346143,0.7981102791346143,1146.0299156592157,3426.1703744358647,1138,0.0,,1356.2732523036639
22,198.2053953,1145,1138,0.8040599544843242,-0.1148657077834749,1146.944127110608,4105.688967668995,1154,-1.033791370051274,,1417.7620354898945
23,198.74851992499998,1137,1132,0.8074165803696804,-0.1614833160739361,1147.711809258455,4818.0445157905215,1139,-0.3229666321478722,,1481.9421644548815
24,199.2915392,1149,1135,0.8060625325032217,-0.05757589517880155,1148.3421633384842,5559.2595013041555,1136,0.7484866373244202,,1548.454625856149
25,199.83445312499998,1175,1149,0.8122546130835153,-0.031240562041673667,1148.844390586401,6325.3564067135085,1167,0.24992449633338934,inf,1616.9404063511884
26,200.3772617,1172,2115,0.8144257223941842,0.0008636540004180108,1149.3183764071446,7007.61591429011,1256,0.0725469360351129,inf,1678.3094067815484
27,200.919964925,1152,6078,0.8150182986479615,0.00016545235457733688,1149.47072413869,7705.634306552663,1608,0.07544627368726561,inf,1740.1220412693044
28,201.4625628,1141,10631,0.8232603193402961,8.67502970853842e-05,1149.4303608235527,8419.593286370991,2003,0.07477875608760118,inf,1801.9117986817025
29,202.005055325,1139,12572,0.8194894939197722,7.167755566515983e-05,1149.5306122448758,9149.270832861272,2177,0.0744013027804359,inf,1865.0316654963513
30,202.5474425,1148,13419,0.8269202298982968,6.73881696600356e-05,1149.4179256608084,9891.868989104885,2251,0.07432915113501927,inf,1930.1536161634099
31,203.089724325,1153,14041,0.8298864771900701,6.439218476024752e-05,1148.8264513352292,10646.374889578268,2302,0.07398662028952441,inf,1996.1038302112916
32,203.63190079999998,1156,14671,0.8293789756785952,6.136729379789828e-05,1148.4830686991559,11414.721579197498,2362,0.07400895632026533,inf,2062.285578382257
33,204.173971925,1149,15153,0.8303112569560028,5.9291006637817966e-05,1149.138304378333,12195.037509343128,2400,0.07417304930391028,inf,2129.6604453101586
34,204.71593769999998,1152,15506,0.832804584655424,5.8018990152948584e-05,1150.1166051325972,12978.503273007067,2426,0.07391619345485649,inf,2197.2275702733505
35,205.257798125,1157,15791,0.8371769300637781,5.720766229764782e-05,1150.8530431040122,13758.841717818941,2452,0.07408392267545393,inf,2264.630320052506
36,205.7995532,1146,16205,0.8381556767340916,5.565812316449244e-05,1151.6180207932007,14530.979342680188,2486,0.07458188504041988,inf,2331.402930983669
37,206.34120292499998,1148,16810,0.840625124319978,5.367291050440416e-05,1151.8993861695403,15295.87773222467,2539,0.0746590185116262,-inf,2397.100930938367
38,206.88274729999998,1147,17418,0.8415937915656597,5.172354443891953e-05,1151.6491200253465,16051.981902194533,2574,0.07380949791433818,-inf,2461.1171940473823
39,207.424186325,1129,17748,0.8431564976534377,5.07344905020421e-05,1151.1071371944784,16789.570341343762,2592,0.0742245596044876,-inf,2523.067566649253
40,207.96552,1125,18036,0.844165982526256,4.991815874438271e-05,1150.7601984189685,17507.8792498128,2614,0.07432813837038585,-inf,2583.3282520554894
41,208.506748325,1136,18394,0.8476484869242688,4.91162641629545e-05,1150.7525651769922,18208.713470293427,2657,0.07470583779185379,-inf,2642.1720310765313
42,209.0478713,1161,18812,0.8491768105118729,4.810927485762126e-05,1150.3496794944174,18887.66692337276,2698,0.07394395545616388,-inf,2698.929602029439
43,209.588888925,1163,19343,0.8502736512177026,4.6769727789752616e-05,1149.8660671815676,19540.462116921866,2738,0.07366232126886037,0.06428179165943011,2753.0132052820595
44,210.12980119999997,1149,19770,0.8513731200582484,4.57211277621099e-05,1149.8606989965576,20164.669709392805,2771,0.07415966923014225,0.05710795618128563,2804.5418242768264
45,210.670608125,1139,20235,0.8534308197221572,4.4691601367938685e-05,1150.1442841287237,20747.38243221777,2797,0.07409867506804234,0.061619547165287225,2851.69025345982
46,211.2113097,1142,20660,0.8557212941711507,4.3842673131014996e-05,1149.9352646718844,21283.5412806628,2839,0.07440101630333244,0.09724917865791337,2894.015810097569
47,211.751905925,1146,20863,0.8575135521308375,4.3491076336706264e-05,1149.331355183561,21772.438243221397,2864,0.07471766914646136,0.09918832314659506,2931.836757344391
48,212.29239679999998,1151,21186,0.8580327959771828,4.2826693085958715e-05,1148.893564973137,22205.136786789764,2868,0.07353343202859111,0.06733440989831121,2964.959772588224
49,212.83278232499998,1148,21655,0.8587529108532552,4.187608674370972e-05,1148.1672971075,22585.2772656228,2892,0.07303189528102975,0.052027443717044694,2993.282679109322
50,213.37306249999997,1149,22094,0.8598387128136875,4.105221832483588e-05,1148.0107816711368,22914.23076400327,2934,0.07327820970983204,0.06894127356365992,3016.2140025821072
51,213.91323732499998,1155,22605,0.8611437003932625,4.0146559458893354e-05,1148.0588461799593,23184.249813132352,2965,0.07266527262059697,0.07354274733770959,3033.8628734512095
52,214.45330679999998,1161,23226,0.8624756676121401,3.9087952305104925e-05,1147.746358920905,23428.483544360693,3026,0.07289903104902068,0.07341255326336044,3049.1064803279214
53,214.993270925,1174,23793,0.8630074298534857,3.8154093012665706e-05,1146.5426396973664,23746.46644318059,3091,0.07314139630528016,0.07335011250646457,3069.8446623932
54,215.5331297,1163,24299,0.8629495266956824,3.729899406533897e-05,1144.50490384831,24170.76235022264,3122,0.07306872937399904,0.07327167117047266,3099.2888627148377
55,216.07288312499998,1158,24826,0.8648478670709356,3.6540808985589644e-05,1143.2454415728337,24636.34798070124,3135,0.07224117936451073,0.07317287069954931,3132.9068608574903
56,216.61253119999998,1160,25314,0.8650803831098881,3.5815201751672106e-05,1143.0277469478137,25109.744275068035,3179,0.07231089233662598,0.07306074794277566,3167.544202586634
57,217.152073925,1149,25626,0.8652291434094919,3.5348659697246064e-05,1143.5287548981637,25589.83487734668,3225,0.07338381753148283,0.07292536006893327,3202.734965684326
58,217.69151129999997,1134,25879,0.8680312398394996,3.5079055964417034e-05,1144.0696958028275,26081.29128632535,3230,0.0735257013014181,0.07277962193739705,3238.719019683283
59,218.230843325,1130,26310,0.868212549145114,3.4480244207510484e-05,1144.1900609300105,26585.385308840006,3258,0.07337395967358232,0.07263555921110824,3275.3988765316817
60,218.77006999999998,1136,26844,0.868144571802742,3.376943254250591e-05,1144.3978346055187,27099.602731658182,3302,0.0731445908870678,0.07248174169111357,3312.8022152256494
61,219.30919132499997,1135,27479,0.8681762475955156,3.29553692527906e-05,1144.6136492332564,27615.16974336852,3334,0.07246885698688653,0.07233012051601537,3350.214704749761
62,219.84820729999998,1132,27977,0.868951283960652,3.236920409613157e-05,1144.487281705113,28134.056852929312,3363,0.07221569433846954,0.07218047460241168,3387.2826791093144
63,220.38711792499998,1138,28404,0.8691522224557424,3.187677776189182e-05,1144.6234342793502,28666.2396203759,3405,0.07226465518620875,0.07201651849112728,3424.9003827945617
64,220.9259232,1146,29063,0.8692686507714266,3.113760972781554e-05,1144.8938367799733,29215.487712065395,3461,0.07208356651989298,0.0718043857750775,3462.5505447461346
65,221.464623125,1143,29670,0.8701622824311823,3.0503112224600634e-05,1144.4076876033214,29774.24723096729,3507,0.0721093572989559,0.0715928716694772,3499.9090126616015
66,222.0032177,1138,30099,0.86932404321908,3.001705891437036e-05,1143.4260345647472,30334.40863892669,3533,0.07189085609991701,0.07139035697446237,3537.1732995084153
67,222.54170692499997,1141,30542,0.8705973257298546,2.9611146754527213e-05,1142.5302724863311,30891.972615460687,3550,0.07133325253165605,0.07120080403383154,3574.3916963010934
68,223.0800908,1141,30985,0.8704844215444587,2.9167820049070455e-05,1142.3935536478523,31450.95080296209,3572,0.07090697053929028,0.07098000205753181,3611.449772361706
69,223.61836932499997,1136,31357,0.8703398065724872,2.8799172978143914e-05,1142.627534032459,32011.234161588553,3593,0.0707595680072996,0.07073719919211208,3648.1280210196587
70,224.1565425,1128,32038,0.8697053263836744,2.8136697715421364e-05,1142.4147319304861,32570.03959319514,3648,0.07090447824286183,0.07051333350555783,3684.680740220546
71,224.69461032499999,1128,32796,0.8700422735223692,2.7473862369659253e-05,1141.4945978391138,33126.90346327146,3698,0.07060782629002428,0.07029888958838793,3720.7678316608944
72,225.23257279999999,1135,33482,0.8700397124616915,2.6897075848198954e-05,1140.6247933135298,33677.96767763644,3751,0.07036275041888847,0.07009934433515526,3756.643638587438
73,225.77042992499997,1133,34370,0.8700678242154535,2.6177688245493078e-05,1140.10034202358,34216.31420870169,3811,0.07010384912143046,0.06990382017320207,3791.474302928646
74,226.30818169999998,1131,35025,0.8699872642519537,2.5667884116715456e-05,1140.0395931957469,34743.591338421495,3831,0.06930328711513173,0.06966288844609438,3824.403587850161
75,226.84582812499997,1119,35492,0.8700242014773532,2.5311267607638356e-05,1139.7495979523667,35268.87691680378,3866,0.06953005211818256,0.06941333954090675,3856.8011053477253
76,227.3833692,1138,36073,0.8696880407569096,2.489446230877085e-05,1139.0719835103632,35785.85945321456,3922,0.06930618306761804,0.06917763549298644,3888.5014609616687
77,227.92080492499997,1153,36400,0.87010037851645,2.4685799600432658e-05,1138.6037735848838,36287.777435501805,3936,0.06870058028800409,0.06892966037985002,3918.9233504721888
78,228.45813529999998,1170,36626,0.8693067287349536,2.4517901870909116e-05,1138.495118802216,36778.441640806566,3973,0.06872367894415825,0.06870011104896419,3949.3382183061153
79,228.99536032499998,1195,36996,0.8691277262341458,2.427663267043227e-05,1139.181906724932,37251.10641237556,4006,0.06824161443658512,0.0684810220023226,3979.3066660625755
80,229.53248,1173,37472,0.86926662631248,2.394739872482658e-05,1139.9139731364025,37695.20924596181,4016,0.06808245457468197,0.06827055352724648,4007.4362046704705
81,230.069494325,1149,38186,0.8686441253792921,2.3453414838655727e-05,1140.4550499444842,38120.19083104867,4047,0.0679679962024243,0.06805024724756004,4033.804842691716
82,230.60640329999998,1129,38796,0.868302707705708,2.3052080274662384e-05,1141.2896781353834,38520.76407166567,4075,0.06791142848915538,0.06784622760724321,4059.0828104826055
83,231.143206925,1129,39297,0.8687016218294412,2.2759946076017637e-05,1141.9727060635355,38877.46757570878,4107,0.06777911941438053,0.06768421743645943,4081.9497836869814
84,231.67990519999998,1135,39606,0.8683284847277679,2.2570988139839564e-05,1141.6889170762427,39189.08903938859,4121,0.06739697058556093,0.06754798838951614,4101.131984869341
85,232.216498125,1134,39816,0.8683608504247778,2.244870612752127e-05,1140.8992502661222,39470.205191509805,4116,0.06694204167226843,0.0674309060231179,4118.096853835795
86,232.75298569999998,1139,40188,0.868249886800152,2.2234881477122384e-05,1140.0961290176228,39725.27008539189,4128,0.0664600607351188,0.06732443738891712,4133.477292803835
87,233.289367925,1140,40578,0.867778574191436,2.2003615147609818e-05,1139.090239869511,39947.917053613135,4157,0.06638490690033882,0.06722859546976079,4146.828897596695
88,233.8256448,1132,40793,0.8676471171202086,2.1876581960117207e-05,1138.244286393781,40126.23089990636,4175,0.06657043890463667,0.06715478237767913,4157.716097759779
89,234.36181632499998,1124,40844,0.8677489292852631,2.1846649780595748e-05,1137.9143128949477,40252.37457246973,4192,0.06702552152686775,0.06710119732408186,4165.640059797424
90,234.89788249999998,1127,40784,0.8672589311593729,2.1868999953586325e-05,1137.6710910779188,40349.89395003207,4198,0.0671596988574636,0.0670569505104469,4171.829373258657
91,235.433843325,1134,40840,0.8668004592010585,2.1830465400721768e-05,1136.934721058213,40426.06720423942,4193,0.06677939366080789,0.06704763342939025,4177.257378422987
92,235.9696988,1138,41012,0.8665578153052318,2.1732402450349394e-05,1135.9991845794702,40466.09300323826,4202,0.06658808110787054,0.06706322479933297,4180.77023262127
93,236.505448925,1137,41029,0.8666098942893835,2.1723901892343918e-05,1135.0327753742788,40465.23486375604,4211,0.0667792744170652,0.06708625807898543,4181.287481030068
94,237.04109369999998,1128,41093,0.8664654382940954,2.168060648802941e-05,1133.697003329612,40427.40637386953,4225,0.06714483829342709,0.06711134460072431,4178.736279417348
95,237.576633125,1129,41079,0.8658853313998153,2.1674226067579857e-05,1132.2701986454742,40350.221590522226,4220,0.06699503277488934,0.067139847357385,4173.175994926192
96,238.11206719999998,1142,41037,0.8659634438688039,2.1706064516074793e-05,1131.016149856147,40238.38050691898,4213,0.06665932412886569,0.06719402021553393,4166.177421912081
97,238.64739592499998,1143,41006,0.8653764850454776,2.1708764645046224e-05,1130.1644431357229,40105.97311377304,4208,0.06653736363706668,0.06725564923921996,4158.133932818331
98,239.1826193,1135,40877,0.865240351462597,2.1771434539343692e-05,1129.5445196946487,39964.06885773101,4210,0.06694716120848185,0.06732857622592991,4150.18892840147
99,239.71773732499997,1123,40678,0.8654717432609225,2.1880210928098152e-05,1129.1115087544235,39828.77129719737,4213,0.06760985176782329,0.06740824823778468,4143.429885161532
100,240.25275,1126,40177,0.8654328986505,2.2161606582430667e-05,1128.4562730752464,39694.09248227516,4179,0.06765938489616083,0.06748501790988704,4136.509139504779
101,240.787657325,1140,39712,0.8649750843904328,2.2424947744229824e-05,1127.3188294185381,39556.41475458031,4160,0.06772334218757407,0.06759215518206355,4130.2631316676825
102,241.3224593,1141,39433,0.8650023747478218,2.25896368627343e-05,1126.935377924733,39431.270810210124,4144,0.0678366794987911,0.06770733555681638,4126.086026863497
103,241.85715592499997,1138,39052,0.864426750181391,2.2799671630041438e-05,1127.050057758931,39310.53253754257,4110,0.06776062408448315,0.06781018621919886,4122.202813200673
104,242.3917472,1128,38776,0.8640504083213235,2.2950765201905107e-05,1127.7025753697487,39186.12609572056,4094,0.06807196958885055,0.06789589036743354,4117.714557521043
105,242.92623312499998,1118,38758,0.8638615542876957,2.295062577810031e-05,1129.13853088403,39070.72339124254,4091,0.06823221043829222,0.0679554640093743,4113.501279757107
106,243.46061369999998,1120,38394,0.8647030136247108,2.319855700018004e-05,1130.379442342953,38979.6280096937,4061,0.0682269561375295,0.06800656415011881,4110.554961607205
107,243.994888925,1112,38101,0.863747888775786,2.3351479866332855e-05,1130.9159437359633,38914.599605879346,4032,0.06818632120969194,0.06806493911964563,4109.468504382807
108,244.52905879999997,1104,38258,0.8628771528607923,2.3224340659438883e-05,1130.5851095154826,38871.744456272325,4051,0.06844213192336639,0.06813408052543052,4110.100749733777
109,245.063123325,1118,38383,0.8633129275796555,2.316685703957213e-05,1130.5713832702675,38856.60114611808,4075,0.06850439626601479,0.06819431489676117,4112.756053364663
110,245.59708249999997,1128,38153,0.8623491049005171,2.329099540582085e-05,1131.090036014384,38875.051552695804,4071,0.06854539947933076,0.06822164198962816,4116.818568936929
111,246.130936325,1133,37824,0.862505803534046,2.3507285261618547e-05,1131.4771342499046,38938.597793833775,4061,0.0688293312460191,0.06821836597813336,4122.709755600274
112,246.66468479999997,1139,37808,0.8631762817630669,2.3539673341598268e-05,1131.6421889510307,39054.910779405356,4054,0.06861814779075895,0.0681976714798105,4131.723255339793
113,247.19832792499997,1130,38119,0.8629529675416884,2.3329989119513596e-05,1131.9328863620703,39224.75990396083,4059,0.06833353813105532,0.068166571249881,4144.597363473612
114,247.7318657,1116,38727,0.8621360146885437,2.2922443292880907e-05,1132.1649640988253,39442.28258850635,4100,0.06840057078595663,0.06811640253306106,4160.025663095347
115,248.265298125,1119,38870,0.8624878814902607,2.2846755887003276e-05,1132.2102878887185,39704.31778749161,4124,0.06865450144044484,0.06805651659794609,4178.075947359996
116,248.79862519999998,1133,38767,0.862427427307537,2.2916177586956925e-05,1132.3343224081868,40000.471267751615,4111,0.06824437685395772,0.06798724478954024,4198.332759518821
117,249.33184692499998,1136,39035,0.8621956715984717,2.2749826422820434e-05,1132.61944777909,40319.52340936298,4119,0.06786273221927336,0.067887546873011,4219.097805159719
118,249.8649633,1142,39573,0.8614594306460737,2.2415743296975715e-05,1133.010668418289,40678.714534869774,4159,0.06762829752697573,0.06777105759676556,4242.261931187489
119,250.397974325,1159,40100,0.861591555373828,2.212556316925164e-05,1133.3184670094233,41082.6550771244,4215,0.06761572104523302,0.06763934312121486,4267.803914018356
120,250.93087999999997,1163,40763,0.861950076569216,2.17664160749802e-05,1133.1048947880822,41533.87132211295,4279,0.0678241524896383,0.0674990807576535,4295.822895195732
