,x_(nm),baseline_dark,baseline_light,baseline_mirror,baseline_calibration,baseline_dark_smoothed,baseline_light_smoothed,raw_signal,calibrated_signal,calibrated_signal_smoothed,raw_signal_smoothed
0,186.23,1305,1305,0.3621226043733797,inf,1286.4487574742843,4208.584352302458,1305,,,1561.5434164635058
1,186.775442325,1299,1301,1.18800459154587,0.594002295772935,1292.6470917088006,3214.4123686565554,1317,10.692041323912829,,1474.7577177621579
2,187.3207793,1299,1295,1.908567993433533,-0.4771419983583832,1298.3878157100607,2344.62425470754,1313,-6.679987977017365,,1399.1540272680597
3,187.86601092499998,1298,1294,1.7279185264672412,-0.4319796316168103,1303.6859913841363,1594.9747219029641,1312,-6.047714842635344,,1334.3470898018945
4,188.41113719999998,1297,1305,1.043047789334166,0.13038097366677076,1308.5566806370991,961.2184816903814,1311,1.8253336313347908,,1279.9516501843445
5,188.956158125,1303,1315,0.840365554154959,0.07003046284624657,1313.0149453750216,439.1102455173436,1304,0.07003046284624657,,1235.5824532360925
6,189.50107369999998,1299,1321,0.8202728553565946,0.03728512978893612,1317.0758475039752,24.404724831403655,1298,-0.03728512978893612,,1200.854243777821
7,190.045883925,1317,1340,0.837733819880384,0.0364232095600167,1320.7544489300317,-287.1433689198848,1316,-0.0364232095600167,,1175.3817666302132
8,190.59058879999998,1325,1342,0.8116271105193998,0.04774277120702352,1324.0658115592635,-499.7793242889693,1328,0.14322831362107055,,1158.7797666139513
9,191.135188325,1333,1340,0.8262856362484797,0.11804080517835425,1327.0249972977422,-617.748429828298,1320,-1.5345304673186053,,1150.662988549718
10,191.67968249999998,1347,1347,0.8012221689422371,inf,1329.6470680515395,-645.295974090317,1322,-inf,,1150.646177258196
11,192.22407132499998,1332,1341,0.7775424502505143,0.08639360558339047,1331.9470857267277,-586.6672456274755,1321,-0.9503296614172952,,1158.3440775600682
12,192.7683548,1321,1338,0.7753865851703869,0.04561097559825805,1333.9401122293784,-446.1075329922205,1317,-0.1824439023930322,,1173.3714342760168
13,193.312532925,1317,1341,0.7956261498651602,0.03315108957771501,1335.6412094655636,-227.86212473699743,1322,0.16575544788857505,,1195.3429922267248
14,193.8566057,1325,1343,0.7908861747409445,0.043938120818941356,1337.0654393413552,63.82369058574568,1333,0.35150496655153085,,1223.873496232875
15,194.400573125,1338,1348,0.7942231778648126,0.07942231778648126,1338.227863762825,424.7046244235644,1352,1.1119124490107377,,1258.57769111515
16,194.9444352,1351,1367,0.7947581770897779,0.04967238606811112,1339.1435446360451,850.5353882240051,1358,0.3477067024767778,,1299.070321694232
17,195.488191925,1351,1374,0.7914877943554887,0.034412512798064725,1339.8275438670873,1337.070693434624,1367,0.5506002047690356,,1344.966132790804
18,196.0318433,1350,1380,0.7911116722494277,0.026370389074980922,1340.2949233620236,1880.0652515029774,1372,0.5801485596495802,,1395.879869225549
19,196.575389325,1344,1366,0.7900325230816138,0.035910569230982445,1340.5607450269256,2475.2737738766104,1358,0.5027479692337542,,1451.4262758191494
20,197.11883,1345,1350,0.798472358442206,0.1596944716884412,1340.6400707678654,3118.450972003082,1355,1.596944716884412,,1511.2200973922872
21,197.662165325,1358,1355,0.7981102791346143,-0.2660367597115381,1340.5479624909149,3805.35155732994,1362,-1.0641470388461525,,1574.8760787656468
22,198.2053953,1361,1362,0.8040599544843242,0.8040599544843242,1340.299482102146,4531.730241304742,1360,-0.8040599544843242,,1642.0089647599086
23,198.74851992499998,1343,1366,0.8074165803696804,0.03510506871172524,1339.9096915076302,5293.3417353750365,1344,0.03510506871172524,,1712.2335001957572
24,199.2915392,1333,1360,0.8060625325032217,0.02985416787048969,1339.39365261344,6085.940750988375,1342,0.26868751083440723,,1785.164429893874
25,199.83445312499998,1350,1378,0.8122546130835153,0.02900909332441126,1338.7664273256216,6905.281999592159,1367,0.49315458651499144,,1860.4164986749063
26,200.3772617,1353,2390,0.8144257223941842,0.0007853671382779019,1338.7182948650902,7632.925071915413,1474,0.09502942373162612,-inf,1927.6534462841369
27,200.919964925,1332,6575,0.8150182986479615,0.0001554488458226133,1338.1581915784925,8377.655915196106,1851,0.0806779509819363,-inf,1996.4006885772792
28,201.4625628,1325,11444,0.8232603193402961,8.135787324244451e-05,1337.1179415162037,9141.852250333923,2264,0.0763950429746554,-inf,2066.3793743912265
29,202.005055325,1325,13511,0.8194894939197722,6.724844033479175e-05,1336.028222609773,9924.34283902221,2463,0.07652872510099301,-inf,2137.921878185196
30,202.5474425,1319,14439,0.8269202298982968,6.302745654712628e-05,1334.9136560284235,10719.812860993248,2554,0.07783890883570095,inf,2211.0184602142317
31,203.089724325,1317,15142,0.8298864771900701,6.002795495045715e-05,1333.6153253754076,11528.001653491363,2612,0.07773620166084201,inf,2284.6802419080404
32,203.63190079999998,1318,15847,0.8293789756785952,5.708438128423121e-05,1331.9909624226793,12352.319282429717,2672,0.07729225225884906,inf,2358.941697433645
33,204.173971925,1316,16354,0.8303112569560028,5.521420780396348e-05,1331.0923463724857,13189.57856350062,2714,0.07718946250994095,inf,2434.914403497201
34,204.71593769999998,1318,16736,0.832804584655424,5.4015085267571924e-05,1330.5923576977707,14029.786948741494,2749,0.07729558701789542,inf,2511.608371650499
35,205.257798125,1330,17064,0.8371769300637781,5.3208143514921704e-05,1330.4982445808257,14866.52551586644,2784,0.07736464067069616,inf,2587.6870144283635
36,205.7995532,1333,17478,0.8381556767340916,5.1914256843238875e-05,1330.9349928650447,15694.515277808936,2825,0.0774560712101124,0.10999343272482853,2662.580103739558
37,206.34120292499998,1336,18113,0.840625124319978,5.010580701674781e-05,1331.0022424063714,16514.53160886965,2889,0.07781431829700935,0.06974212342105356,2736.5209857527393
38,206.88274729999998,1335,18795,0.8415937915656597,4.820124808508933e-05,1330.5980429907556,17325.528551042727,2929,0.07683278944763239,0.04780278101912155,2809.546920655001
39,207.424186325,1339,19215,0.8431564976534377,4.7166955563517435e-05,1329.9529547667871,18118.444336224708,2951,0.0760331323683901,0.03492087831967599,2880.2248522049777
40,207.96552,1339,19550,0.844165982526256,4.635472969777914e-05,1329.6471720763523,18890.697433690093,2984,0.07625353035284668,0.027864533248946936,2948.8777095743394
41,208.506748325,1330,19884,0.8476484869242688,4.5685484904832854e-05,1329.5011212031727,19643.25092301034,3021,0.07725415497407236,0.04641418406113191,3016.0661396633545
42,209.0478713,1338,20306,0.8491768105118729,4.4768916623358964e-05,1329.8913678678762,20376.030600919225,3076,0.07780837709139787,0.0457578802421362,3081.148542435783
43,209.588888925,1333,20863,0.8502736512177026,4.3536797297373405e-05,1330.2930077691199,21081.66789734721,3138,0.078583919121759,0.05291291182148888,3144.173956374942
44,210.12980119999997,1312,21310,0.8513731200582484,4.257291329424185e-05,1330.6091191193204,21756.096264920645,3180,0.07952620203364377,0.06354642179176198,3204.9082425422384
45,210.670608125,1313,21806,0.8534308197221572,4.164499193491227e-05,1330.9962400054105,22385.695463090466,3229,0.07979180454729191,0.07446720777968288,3261.5505900472767
46,211.2113097,1324,22272,0.8557212941711507,4.084978490410305e-05,1331.4812566535793,22967.16401277448,3256,0.0789217844347271,0.12328851919973886,3313.6410564225057
47,211.751905925,1327,22515,0.8575135521308375,4.047166094632988e-05,1332.0565131712806,23498.85664454416,3262,0.07831266393114832,0.09495376895196615,3360.8607216470846
48,212.29239679999998,1334,22824,0.8580327959771828,3.992707287004108e-05,1332.9028290561253,23969.020068404265,3300,0.07849662526250077,0.06850920825464972,3401.95145982915
49,212.83278232499998,1330,23314,0.8587529108532552,3.906263240780819e-05,1333.8452739586144,24382.78185236312,3344,0.0786721416693257,0.06403055480725818,3437.4618904164786
50,213.37306249999997,1329,23844,0.8598387128136875,3.8189594173381635e-05,1334.4644725814599,24740.64003714646,3380,0.07832685764960573,0.06672762889880743,3467.3484337130412
51,213.91323732499998,1330,24441,0.8611437003932625,3.726120463819231e-05,1335.2910371695593,25033.85277129672,3431,0.07828579094484205,0.0776916787076212,3491.0892885455396
52,214.45330679999998,1337,25129,0.8624756676121401,3.6250658524383834e-05,1336.1734580624448,25297.530680196123,3500,0.07841017438824223,0.07814949335999878,3512.6834809394786
53,214.993270925,1350,25671,0.8630074298534857,3.548404382441041e-05,1335.9394323766987,25637.711590296007,3559,0.0783842528081226,0.07823760519619709,3540.4490475434777
54,215.5331297,1348,26172,0.8629495266956824,3.47627105501e-05,1335.3968379804496,26094.41128904342,3602,0.0783551495799254,0.0781871884906254,3577.120455729393
55,216.07288312499998,1344,26784,0.8648478670709356,3.399559225907766e-05,1335.7143763165386,26594.631180773686,3635,0.07788390186554692,0.07813368009642513,3618.9394550272245
56,216.61253119999998,1353,27323,0.8650803831098881,3.331075791720786e-05,1336.4975197625965,27099.007678542595,3685,0.07768068746292874,0.07811797938418849,3662.1573308568004
57,217.152073925,1358,27627,0.8652291434094919,3.29372699154704e-05,1337.0437382499913,27609.529910076715,3724,0.07792958062000296,0.0781034352220594,3705.973453532285
58,217.69151129999997,1350,27910,0.8680312398394996,3.26818990903426e-05,1337.263924437674,28135.029083330905,3737,0.0780116931286478,0.07805764401965484,3750.157330856799
59,218.230843325,1344,28387,0.868212549145114,3.2104890328185264e-05,1337.3830437835256,28674.179528414592,3766,0.07775804437486471,0.07799297942857296,3794.9315499784093
60,218.77006999999998,1338,28974,0.868144571802742,3.141353928943197e-05,1337.6175904323738,29221.71059367087,3809,0.0776228555841864,0.07791011011461335,3839.8318421707563
61,219.30919132499997,1335,29662,0.8681762475955156,3.064836543211479e-05,1338.0602505152747,29771.20559922025,3872,0.07775490310127521,0.0778087888565668,3884.2377177285266
62,219.84820729999998,1333,30215,0.868951283960652,3.0086257321537707e-05,1338.7731092436718,30322.379057282706,3915,0.07768271640421036,0.0777013475235105,3928.8688079004432
63,220.38711792499998,1336,30684,0.8691522224557424,2.9615381711044788e-05,1339.7358943577174,30885.007316133404,3940,0.07711845397556062,0.07759688207498379,3974.731386894304
64,220.9259232,1337,31352,0.8692686507714266,2.8961141121819975e-05,1340.7208090783229,31464.63045595536,4012,0.07747105250086843,0.07744944490824443,4021.1374436566302
65,221.464623125,1330,32006,0.8701622824311823,2.8366223837240263e-05,1342.0261840585033,32053.227207863667,4073,0.07780855198555005,0.07726576071242916,4067.8112075017907
66,222.0032177,1336,32509,0.86932404321908,2.7887083155906713e-05,1343.309520034403,32642.0470905337,4115,0.07749820409026476,0.07706445120112487,4113.830392534294
67,222.54170692499997,1332,32877,0.8705973257298546,2.759858379235551e-05,1343.8975741239635,33224.771614305464,4155,0.07791080204581961,0.07687974726968742,4158.866474891764
68,223.0800908,1334,33323,0.8704844215444587,2.7211992295615953e-05,1344.3835194454884,33805.67242746091,4183,0.07752696605020985,0.07671780639614298,4204.5273505627865
69,223.61836932499997,1339,33747,0.8703398065724872,2.6855708669849643e-05,1344.7728827379751,34389.15982241887,4199,0.07680732679576997,0.07657578746645641,4250.809916419316
70,224.1565425,1333,34476,0.8697053263836744,2.624099587797346e-05,1344.695463090871,34971.889578472226,4240,0.07628257501726884,0.0764602314900402,4297.098824435352
71,224.69461032499999,1332,35200,0.8700422735223692,2.5689213225533517e-05,1344.7171396860374,35551.768873586494,4293,0.07606576036080474,0.07635151260097221,4343.210446442646
72,225.23257279999999,1346,35877,0.8700397124616915,2.5195902593660523e-05,1344.8453872114626,36126.251919635084,4356,0.07583966680691817,0.07621492602108923,4387.962377403707
73,225.77042992499997,1347,36852,0.8700678242154535,2.450550131574295e-05,1344.8351265034057,36688.820901944986,4445,0.07591804307617166,0.0760615276725057,4431.043443792526
74,226.30818169999998,1330,37542,0.8699872642519537,2.402483332188097e-05,1345.1418605177662,37239.474031121164,4489,0.07589444846382198,0.07591714856802918,4473.714557521036
75,226.84582812499997,1331,38044,0.8700242014773532,2.369798712928263e-05,1345.2183967926535,37785.74660807647,4531,0.07583355881370442,0.07578255720405418,4516.122698135771
76,227.3833692,1343,38699,0.8696880407569096,2.3281080435724104e-05,1344.601259371647,38323.40963555161,4607,0.07598944654220348,0.07565590583773744,4557.671226981271
77,227.92080492499997,1350,39074,0.87010037851645,2.3064902410042675e-05,1343.6154386282556,38849.054202812455,4627,0.07558368519770985,0.07553752904211918,4598.225984733428
78,228.45813529999998,1374,39318,0.8693067287349536,2.291025534300426e-05,1342.769666357083,39366.10383021058,4664,0.07537474007848402,0.07541288768737997,4637.658089650866
79,228.99536032499998,1385,39574,0.8691277262341458,2.27585882383447e-05,1342.5560261840328,39863.87376837451,4708,0.07562678871601944,0.07530287821525351,4676.644499309068
80,229.53248,1361,40033,0.86926662631248,2.2477933034559372e-05,1342.4530340437805,40334.65070556447,4711,0.07530107566577389,0.07521713233495221,4714.562617499739
81,230.069494325,1339,40906,0.8686441253792921,2.1953752505352747e-05,1342.397811954945,40792.37314548383,4748,0.07484034229074751,0.07512147994925847,4751.1767423949805
82,230.60640329999998,1342,41596,0.868302707705708,2.1570594418087843e-05,1343.0624929216713,41228.78076513545,4784,0.07424598598705835,0.07502234751918473,4786.443022491924
83,231.143206925,1352,42034,0.8687016218294412,2.135346398479527e-05,1343.7858388638215,41621.985707489745,4833,0.07433140813107234,0.07494492564754714,4818.797571858841
84,231.67990519999998,1352,42306,0.8683284847277679,2.1202531736283827e-05,1344.101089492375,41971.44789236369,4857,0.07431487373567482,0.07488802356148193,4847.708124759244
85,232.216498125,1348,42572,0.8683608504247778,2.1064449117620267e-05,1344.3980384606414,42292.98197014574,4886,0.07452602097814051,0.0748462161562475,4874.875467167905
86,232.75298569999998,1352,42934,0.868249886800152,2.0880426309464482e-05,1344.5436589729975,42592.24224784172,4934,0.07479368704050178,0.07481738503607037,4900.702122358283
87,233.289367925,1346,43341,0.867778574191436,2.0663854606296844e-05,1344.7312283403671,42863.90310086217,4962,0.0747204982563694,0.07480595483740993,4925.015628892972
88,233.8256448,1340,43608,0.8676471171202086,2.0527281090191364e-05,1344.8383655348673,43095.94686176274,4977,0.07465772132502599,0.07482057832449432,4946.935740333774
89,234.36181632499998,1337,43703,0.8677489292852631,2.04822010405812e-05,1345.3005504088167,43279.41892228507,4988,0.07478051599916197,0.07484240179371107,4965.368796575139
90,234.89788249999998,1328,43737,0.8672589311593729,2.0449879298247373e-05,1345.7090987338074,43436.89798183341,4981,0.07470340907649765,0.07489500473444996,4982.862488391488
91,235.433843325,1326,43886,0.8668004592010585,2.0366552142882015e-05,1345.433373349314,43577.08124759255,5008,0.07498964499009157,0.07497151537416082,4999.12691114172
92,235.9696988,1338,44169,0.8665578153052318,2.023202389169601e-05,1345.1395501596608,43682.85517225674,5048,0.0750608086381922,0.07505204868406415,5012.675485288359
93,236.505448925,1349,44326,0.8666098942893835,2.016450413684956e-05,1344.5909533624513,43745.55401028251,5049,0.07460866530634337,0.07515962531486564,5023.104622981172
94,237.04109369999998,1348,44403,0.8664654382940954,2.0124618239324012e-05,1343.711159935647,43775.8255000105,5054,0.07458183519493479,0.07526501432840686,5030.378966680915
95,237.576633125,1340,44409,0.8658853313998153,2.010460729062238e-05,1342.9489456159567,43771.2553851721,5056,0.07470872069195277,0.07535586001359207,5034.248997712196
96,238.11206719999998,1331,44455,0.8659634438688039,2.0080777383099988e-05,1342.2324627964133,43732.98987519453,5067,0.07502178430326155,0.0754536791510498,5035.795216199591
97,238.64739592499998,1332,44485,0.8653764850454776,2.0053680741674452e-05,1342.0791863915122,43671.98799519724,5093,0.07542189326943761,0.0755511277647169,5035.694104056621
98,239.1826193,1335,44407,0.865240351462597,2.0088232528384963e-05,1342.4992412058905,43601.004280956826,5101,0.07565228370189776,0.07564563973550541,5035.271014065907
99,239.71773732499997,1327,44259,0.8654717432609225,2.015912939674188e-05,1342.5754377222331,43540.42164035342,5088,0.07581848566114621,0.07576151671182531,5036.727808104277
100,240.25275,1326,43901,0.8654328986505,2.0327255399894305e-05,1342.0655733991453,43480.56372737691,5067,0.0760442624510046,0.07588933190610427,5038.286597657835
101,240.787657325,1345,43604,0.8649750843904328,2.0468422925067625e-05,1341.621735486622,43417.358649119196,5049,0.07581503851445048,0.07601900787767261,5039.676481913423
102,241.3224593,1358,43399,0.8650023747478218,2.057520931347546e-05,1341.7395637500026,43367.679924799275,5044,0.07584022152947054,0.07614177735358217,5042.2594622753795
103,241.85715592499997,1362,43100,0.864426750181391,2.0710785140193372e-05,1342.0303970644604,43320.62071621018,5062,0.07662990501871547,0.07624946226088856,5044.489841219411
104,242.3917472,1357,42956,0.8640504083213235,2.077094180920992e-05,1342.790301026045,43267.83200072399,5048,0.07666554621779381,0.07634542829733801,5046.224852204936
105,242.92623312499998,1355,42991,0.8638615542876957,2.0747947792479963e-05,1343.8008561915071,43217.0181204549,5035,0.07635244787632627,0.07645505534835213,5049.181272508906
106,243.46061369999998,1352,42611,0.8647030136247108,2.0957924661884942e-05,1344.3220684499956,43184.148112074196,5013,0.07672696218716077,0.07656291421328039,5053.270062741982
107,243.994888925,1338,42368,0.863747888775786,2.1051618054491496e-05,1344.0417676504308,43175.22211148528,5004,0.07717523178776582,0.07665640227294143,5058.159641214879
108,244.52905879999997,1343,42597,0.8628771528607923,2.0916205770611146e-05,1344.1157217603768,43182.81136605503,5038,0.07728538032240818,0.07670898879113626,5062.911798681639
109,245.063123325,1352,42809,0.8633129275796555,2.082429813010241e-05,1344.8508686493208,43208.168497586885,5065,0.07732061895707024,0.07675096545837394,5069.285668984478
110,245.59708249999997,1349,42644,0.8623491049005171,2.088265177141342e-05,1345.4125574757945,43259.95349837965,5045,0.077182280947144,0.07678421116825855,5077.441097193498
111,246.130936325,1349,42347,0.862505803534046,2.1037753147325384e-05,1345.9566241590717,43349.56109991083,5018,0.07718751629753684,0.07680362737524479,5088.055584497853
112,246.66468479999997,1344,42322,0.8631762817630669,2.1064382882597172e-05,1346.6058121361493,43480.05662642331,5015,0.07732734956201422,0.07681298590961555,5101.673220231391
113,247.19832792499997,1343,42620,0.8629529675416884,2.0906387759325736e-05,1347.2886135586048,43653.72103558321,5024,0.07695641334207803,0.07680683675810032,5118.327549887781
114,247.7318657,1331,43231,0.8621360146885437,2.057603853671942e-05,1347.7006274207538,43865.97374798892,5054,0.0766045914722064,0.076779399095632,5136.912002536766
115,248.265298125,1330,43364,0.8624878814902607,2.0518815280255523e-05,1348.1638768714777,44112.01569684393,5048,0.07628895521199003,0.07671319766784901,5156.160456635385
116,248.79862519999998,1343,43225,0.862427427307537,2.059183962818244e-05,1348.6211918729496,44383.22763822425,5045,0.07623099030353139,0.07660724202455065,5175.327663140629
117,249.33184692499998,1348,43561,0.8621956715984717,2.042488502590367e-05,1349.0959931142008,44669.92733697167,5079,0.07620524603164659,0.07648323081070539,5194.97725882796
118,249.8649633,1352,44146,0.8614594306460737,2.0130378806516654e-05,1349.8979365330779,44991.28249790396,5134,0.07613309264624599,0.07633328960258821,5216.395569548473
119,250.397974325,1366,44537,0.861591555373828,1.9957646461138915e-05,1350.8462026319703,45352.571745678535,5188,0.07627812477447293,0.07614417199764448,5239.086593127717
