,x_(nm),baseline_dark,baseline_light,baseline_mirror,baseline_calibration,baseline_dark_smoothed,baseline_light_smoothed,raw_signal,calibrated_signal,calibrated_signal_smoothed,raw_signal_smoothed
0,186.23,1061,1058,0.3621226043733797,-0.12070753479112656,1037.7151155253255,3825.782694758304,1049,1.4484904174935187,,1226.2830410022423
1,186.775442325,1050,1059,1.18800459154587,0.1320005101717633,1045.2404159986838,2877.4892354490826,1035,-1.9800076525764496,,1160.0987993713857
2,187.3207793,1048,1051,1.908567993433533,0.6361893311445109,1052.2813873170614,2047.8285819085163,1025,-14.63235461632375,,1102.694310415668
3,187.86601092499998,1055,1054,1.7279185264672412,-1.7279185264672412,1058.8525990108988,1332.7426071380228,1028,46.653800214615515,,1053.7614073624939
4,188.41113719999998,1056,1067,1.043047789334166,0.094822526303106,1064.9686206106371,728.1731841390206,1022,-3.223965894305604,,1012.991923439268
5,188.956158125,1061,1067,0.840365554154959,0.14006092569249315,1070.6440216467167,230.0621859129269,1020,-5.742497953392219,,980.0776918733953
6,189.50107369999998,1064,1059,0.8202728553565946,-0.1640545710713189,1075.893371649579,-165.64851453883966,1020,7.218401127138032,,954.7105458922808
7,190.045883925,1073,1073,0.837733819880384,inf,1080.731240149664,-463.01704421486147,1047,-inf,,936.5823187233291
8,190.59058879999998,1087,1083,0.8116271105193998,-0.20290677762984996,1085.172196677413,-666.1015301137209,1066,4.261042330226849,,925.3848435939449
9,191.135188325,1093,1084,0.8262856362484797,-0.09180951513871997,1089.2308107632668,-778.9600992339997,1067,2.387047393606719,,920.8099537315333
10,191.67968249999998,1105,1092,0.8012221689422371,-0.06163247453401824,1092.921651937666,-805.6508785742794,1076,1.787341761486529,,922.5494823634989
11,192.22407132499998,1107,1082,0.7775424502505143,-0.03110169801002057,1096.2592897310515,-750.2319951331433,1070,1.1507628263707612,,930.2952627172467
12,192.7683548,1088,1076,0.7753865851703869,-0.06461554876419891,1099.2582936738638,-616.7615759091718,1070,1.1630798777555804,,943.7391280201813
13,193.312532925,1081,1072,0.7956261498651602,-0.08840290554057335,1101.9332332965441,-409.29774790094916,1074,0.6188203387840134,,962.5729114997075
14,193.8566057,1091,1083,0.7908861747409445,-0.09886077184261806,1104.2986781295328,-131.89863810705447,1073,1.7794938931671251,,986.4884463832304
15,194.400573125,1109,1102,0.7942231778648126,-0.1134604539806875,1106.369197703271,211.3776264739272,1080,3.290353165439938,,1015.1775658981546
16,194.9444352,1113,1105,0.7947581770897779,-0.09934477213622224,1108.1593615481995,616.4729188434162,1078,3.4770670247677784,,1048.332103271885
17,195.488191925,1116,1118,0.7914877943554887,0.39574389717774433,1109.6837391947588,1079.3291120028284,1090,-10.289341326621352,,1085.6438917318264
18,196.0318433,1119,1126,0.7911116722494277,0.11301595317848967,1110.9569001733898,1595.8880789535838,1115,-0.4520638127139587,,1126.8047645053837
19,196.575389325,1115,1109,0.7900325230816138,-0.13167208718026896,1111.9934140145333,2162.091692697098,1101,1.8434092205237653,,1171.5065548199614
20,197.11883,1115,1091,0.798472358442206,-0.03326968160175858,1112.8078502486303,2773.881826234792,1083,1.0646298112562746,,1219.4410959029644
21,197.662165325,1120,1091,0.7981102791346143,-0.02752104410809015,1113.4147784061213,3427.2003525680802,1090,0.8256313232427045,,1270.3002209817982
22,198.2053953,1118,1098,0.8040599544843242,-0.04020299772421621,1113.8287680174471,4117.989144698384,1084,1.3669019226233512,,1323.7757632838664
23,198.74851992499998,1102,1092,0.8074165803696804,-0.08074165803696805,1114.0643886130485,4842.190075627121,1075,2.1800247669981374,,1379.5595560365748
24,199.2915392,1105,1096,0.8060625325032217,-0.08956250361146907,1114.1362097233666,5595.745018355703,1089,1.4330000577835051,,1437.3434324673278
25,199.83445312499998,1135,1123,0.8122546130835153,-0.06768788442362628,1114.0588008788209,6374.595845885403,1109,1.7598849950142832,-inf,1496.8192258035003
26,200.3772617,1139,2095,0.8144257223941842,0.0008519097514583517,1114.5587442523968,7066.570137488821,1184,0.038335938815625824,-inf,1549.6283494529591
27,200.919964925,1112,6115,0.8150182986479615,0.00016290591617988437,1114.4175632516942,7774.664907472274,1494,0.06223005998071583,inf,1603.2531427665099
28,201.4625628,1099,10696,0.8232603193402961,8.57830904803893e-05,1113.4993544587433,8498.174296133386,1832,0.06287900532212536,inf,1657.2910598201227
29,202.005055325,1100,12623,0.8194894939197722,7.111772055191984e-05,1113.1017463588994,9237.413961810962,1983,0.06279694724734522,inf,1712.742938684875
30,202.5474425,1106,13523,0.8269202298982968,6.659581460081315e-05,1112.639493533241,9991.327504586548,2057,0.0633326196853733,inf,1769.0062515571924
31,203.089724325,1105,14182,0.8298864771900701,6.34615337761008e-05,1111.7276722009346,10759.1308749913,2102,0.0632711491747725,inf,1825.2930077691103
32,203.63190079999998,1118,14854,0.8293789756785952,6.0379948724417236e-05,1110.6313393281628,11541.522911050994,2141,0.06176868754507883,inf,1882.1469568959299
33,204.173971925,1122,15337,0.8303112569560028,5.841092205107301e-05,1109.970916668533,12335.328410609289,2173,0.061389879075677736,0.06210378000040317,1940.603207320627
34,204.71593769999998,1123,15696,0.832804584655424,5.7147092887903925e-05,1109.8874040181897,13131.288364402113,2210,0.06211888996915157,0.11853682388116885,1999.6124940541872
35,205.257798125,1121,16037,0.8371769300637781,5.612610150601891e-05,1110.001789394982,13922.64196244509,2225,0.06196321606264488,0.13524404699310758,2058.220752451885
36,205.7995532,1114,16468,0.8381556767340916,5.458875060141277e-05,1110.3742327119314,14705.622981267701,2235,0.06119398942418371,0.14324863484515032,2116.783709710259
37,206.34120292499998,1112,17069,0.840625124319978,5.268064951557173e-05,1110.772588280574,15482.32437880783,2280,0.06153099863418778,0.1382655724286458,2174.618722960841
38,206.88274729999998,1101,17682,0.8415937915656597,5.0756515986108177e-05,1110.0660717116823,16249.183514915088,2316,0.06166916692312144,0.13788514322657058,2230.7669029875674
39,207.424186325,1095,18012,0.8431564976534377,4.984078132372393e-05,1108.562277741264,16998.020068404396,2334,0.06175272806009395,0.12438165072590361,2284.5871480667297
40,207.96552,1093,18269,0.844165982526256,4.9147996188068e-05,1107.7385897755116,17728.874923553987,2376,0.06305687910929124,0.14999688654478918,2336.751545901335
41,208.506748325,1086,18640,0.8476484869242688,4.82880532598991e-05,1107.575392421098,18442.470678837217,2411,0.06398167056936631,0.23320118177511062,2387.9966930167834
42,209.0478713,1094,19066,0.8491768105118729,4.72499894564808e-05,1107.0442818636677,19134.78665428399,2444,0.06378748576624908,0.34053262284828384,2437.3309021721425
43,209.588888925,1107,19613,0.8502736512177026,4.5945836551264595e-05,1106.7650682914464,19800.54991052987,2466,0.062440391873168584,0.02156097287070151,2484.5773403700628
44,210.12980119999997,1108,20060,0.8513731200582484,4.4922600256344895e-05,1107.0569435321086,20436.271285872448,2482,0.06172365275221789,-0.04050100150928658,2530.4372918978424
45,210.670608125,1097,20512,0.8534308197221572,4.395729177039182e-05,1107.3609594781096,21028.636866066776,2519,0.06250726889749718,-0.033382618689934966,2573.2590772157423
46,211.2113097,1089,20900,0.8557212941711507,4.3194250374597486e-05,1107.7053613898179,21576.180932750045,2549,0.06306360554691233,-0.043087605310007354,2612.032345013427
47,211.751905925,1095,21094,0.8575135521308375,4.2877821497616754e-05,1108.1861423814596,22074.479354005332,2557,0.0626873750295157,-0.0563982439999238,2646.747536750498
48,212.29239679999998,1114,21444,0.8580327959771828,4.2205253122340525e-05,1108.418944936444,22515.197173208475,2581,0.06191510633047355,-0.04921902281292252,2676.6865387663984
49,212.83278232499998,1117,21892,0.8587529108532552,4.133588018547558e-05,1108.2435389249827,22903.057894855618,2622,0.062210499679140746,-0.009310546640077874,2702.5968425105375
50,213.37306249999997,1119,22353,0.8598387128136875,4.0493487464146536e-05,1108.1349747445934,23239.3449681755,2674,0.06296737300674786,0.01791609639117743,2724.4856282134974
51,213.91323732499998,1109,22900,0.8611437003932625,3.95183195077446e-05,1108.2252825658352,23514.300278601553,2714,0.06342690280993009,0.06327500485173475,2741.520079729952
52,214.45330679999998,1113,23543,0.8624756676121401,3.8451879964874725e-05,1108.6858139481994,23758.730412919434,2754,0.06309953502235942,0.06264462861225632,2756.511268658354
53,214.993270925,1131,24150,0.8630074298534857,3.7491091266062196e-05,1108.0546105234332,24078.09150830097,2805,0.06276008677938812,0.06264369411815922,2776.7310697863522
54,215.5331297,1114,24692,0.8629495266956824,3.659977634641116e-05,1106.8292600058678,24505.94448345329,2828,0.06273201665774873,0.06267132775057588,2805.173073002732
55,216.07288312499998,1109,25203,0.8648478670709356,3.589474006271004e-05,1106.6513397811743,24972.477043647166,2853,0.06260042666936631,0.06269638372217676,2837.734580624648
56,216.61253119999998,1122,25636,0.8650803831098881,3.528923811331844e-05,1107.0476341479775,25446.17413757907,2901,0.0627795546035935,0.06274120622940745,2871.58905071457
57,217.152073925,1126,25918,0.8652291434094919,3.489952982451968e-05,1107.7939024666257,25928.848037327643,2925,0.0627842541543109,0.06279120548625125,2906.6250877709017
58,217.69151129999997,1115,26194,0.8680312398394996,3.461187606521391e-05,1108.8720242813895,26427.6332646261,2932,0.06288977881049367,0.06279291552122483,2942.47446148265
59,218.230843325,1104,26662,0.868212549145114,3.3970285200137495e-05,1109.7370042356351,26939.206890302776,2960,0.06304884933145519,0.06277691328494439,2978.81938435746
60,218.77006999999998,1098,27259,0.868144571802742,3.318468605186124e-05,1110.6405354594456,27458.41595506074,2996,0.06298453412643264,0.06277092534215074,3015.8151487009322
61,219.30919132499997,1097,27913,0.8681762475955156,3.237530756248193e-05,1111.6264921062552,27979.56236834303,3020,0.06225771644265276,0.06276601007665891,3053.273143219493
62,219.84820729999998,1095,28382,0.868951283960652,3.184488159052487e-05,1112.4954359101919,28504.92407528995,3042,0.06200198445675192,0.0627400211822001,3090.8353077079305
63,220.38711792499998,1110,28857,0.8691522224557424,3.1324187207833e-05,1112.9966703662383,29042.74817096594,3094,0.06214718742034068,0.06271121542007356,3128.8145597861185
64,220.9259232,1127,29507,0.8692686507714266,3.062962123930326e-05,1112.9272010690856,29598.14251738374,3169,0.06254568657065726,0.06267478415541193,3167.3785589706977
65,221.464623125,1111,30072,0.8701622824311823,3.0046002639107154e-05,1112.6571156764378,30162.366531517688,3212,0.06312665154476413,0.06263651470977441,3206.4511993476017
66,222.0032177,1104,30498,0.86932404321908,2.9574880697389943e-05,1112.2341615891426,30725.560284490562,3228,0.06281704660125624,0.06262757456813799,3245.8093501550948
67,222.54170692499997,1121,30902,0.8705973257298546,2.9233314050228486e-05,1111.1771048041646,31286.281206821746,3257,0.06244235881128805,0.06265040717722557,3285.074271217858
68,223.0800908,1118,31351,0.8704844215444587,2.8792525437252628e-05,1110.2436068766917,31847.88479920209,3297,0.06273891292777348,0.06266667559016137,3324.3092708780996
69,223.61836932499997,1103,31768,0.8703398065724872,2.8382188376732013e-05,1109.6319735441134,32411.507961674615,3319,0.06289492944283814,0.06264029090363378,3363.0529343812354
70,224.1565425,1098,32486,0.8697053263836744,2.770821098456972e-05,1108.6488482185116,32973.7910031931,3347,0.0623157665042973,0.06259712112697477,3401.238329293916
71,224.69461032499999,1095,33143,0.8700422735223692,2.71480988992252e-05,1107.0627647285116,33534.6027769592,3392,0.06235918317152028,0.06257791730822472,3439.473011846182
72,225.23257279999999,1094,33854,0.8700397124616915,2.6557988780881916e-05,1105.2503793970207,34089.65969784075,3454,0.06267685352288133,0.062568411712221,3477.122063919841
73,225.77042992499997,1100,34762,0.8700678242154535,2.5847181516708855e-05,1103.7375025481679,34632.3844481182,3522,0.06260187363346885,0.06253576318601636,3513.3490905795607
74,226.30818169999998,1096,35389,0.8699872642519537,2.5369237577696723e-05,1102.619628983648,35165.88763052323,3551,0.062281478253245454,0.06247476939853296,3548.6583161565827
75,226.84582812499997,1093,35823,0.8700242014773532,2.505108555938247e-05,1101.5194908151727,35694.52800742869,3591,0.0625776117273374,0.06240804998482746,3583.3359532491554
76,227.3833692,1118,36451,0.8696880407569096,2.461404468222086e-05,1100.692880925934,36212.66479421889,3660,0.06256890158220542,0.06235358030489052,3617.6425287095276
77,227.92080492499997,1117,36914,0.87010037851645,2.4306516705770036e-05,1099.796190174162,36717.51527780853,3688,0.06249205445053476,0.06231943642501998,3651.5912931209523
78,228.45813529999998,1134,37142,0.8693067287349536,2.4142044232808087e-05,1098.8472219076098,37211.09232372123,3730,0.06267274682836979,0.062290199880789265,3685.0327980247994
79,228.99536032499998,1147,37450,0.8691277262341458,2.394093397884874e-05,1098.6849758771223,37687.883983781474,3751,0.06234219208092212,0.062253026557161556,3717.858796348656
80,229.53248,1115,37982,0.86926662631248,2.357844756319961e-05,1098.417155541441,38141.517112504655,3760,0.06236499380466297,0.06220709155393071,3748.6478515933954
81,230.069494325,1100,38765,0.8686441253792921,2.3062368920198915e-05,1097.9572357244574,38578.14369521319,3801,0.06229145845345727,0.062161110433194354,3778.171849871952
82,230.60640329999998,1083,39337,0.868302707705708,2.2698350700729547e-05,1098.0831728917772,38988.64619810113,3821,0.0621480842185975,0.06212843072472148,3806.8501891321835
83,231.143206925,1080,39710,0.8687016218294412,2.248774584078284e-05,1098.467054746406,39355.00983034647,3847,0.06222359274144612,0.062089056867298854,3832.302974019723
84,231.67990519999998,1089,39993,0.8683284847277679,2.2319773923703678e-05,1098.2340030351552,39677.31894267065,3876,0.06220520992536215,0.0620481618561604,3853.840607941216
85,232.216498125,1088,40275,0.8683608504247778,2.215941129519427e-05,1097.3899069061376,39971.51471154422,3904,0.06240090220726706,0.06202112212819853,3873.2793947767045
86,232.75298569999998,1082,40679,0.868249886800152,2.192716334066096e-05,1096.390744977215,40241.9372352707,3912,0.06205387225407051,0.06199786713900563,3891.1291082469984
87,233.289367925,1076,41059,0.867778574191436,2.1703688422365404e-05,1095.496659040954,40480.874040181334,3918,0.06168188249636248,0.06195549091233599,3906.3833608914524
88,233.8256448,1083,41303,0.8676471171202086,2.1572529018403993e-05,1094.5078484223668,40676.928446849655,3944,0.061719005521653825,0.06191121688151903,3918.4865795374
89,234.36181632499998,1088,41347,0.8677489292852631,2.1554160045834798e-05,1094.0703300187793,40824.15375206607,3954,0.06177422269136253,0.06187043535259289,3927.6838886497244
90,234.89788249999998,1084,41316,0.8672589311593729,2.1556445892806048e-05,1094.2634940768548,40941.52189177479,3941,0.061586765915746876,0.061846341401750035,3936.0093773357644
91,235.433843325,1081,41433,0.8668004592010585,2.1480978866005614e-05,1094.0330471811155,41037.10215406839,3953,0.061693371303168126,0.06184050269267289,3942.941765385324
92,235.9696988,1089,41627,0.8665578153052318,2.1376432367290733e-05,1093.775283698364,41098.240435796164,3969,0.06156412521779731,0.0618229355508753,3946.99556048827
93,236.505448925,1087,41689,0.8666098942893835,2.1344019858366177e-05,1093.7980022197348,41117.974291602644,3978,0.06170556141053662,0.061805290130401425,3948.3207094157665
94,237.04109369999998,1085,41769,0.8664654382940954,2.1297449569710336e-05,1093.5561847380252,41103.49070194036,3987,0.061805198651299395,0.06179013806561334,3946.9910983260474
95,237.576633125,1097,41801,0.8658853313998153,2.1272733181009613e-05,1092.8700763323989,41052.97030510239,3985,0.06143565342675576,0.06178215070304553,3942.976443407476
96,238.11206719999998,1106,41763,0.8659634438688039,2.129924598147438e-05,1092.3243335069667,40970.38363269757,3976,0.06112883596683147,0.061756985599469114,3936.2137081246847
97,238.64739592499998,1104,41717,0.8653764850454776,2.1307869033203104e-05,1091.7537430066157,40863.64291376849,3976,0.061196199863359314,0.0617313401600751,3927.478017622069
98,239.1826193,1097,41579,0.865240351462597,2.137345861031068e-05,1091.305216426172,40746.889963531794,3975,0.06151281388047414,0.06172223072243123,3918.8960791863165
99,239.71773732499997,1102,41352,0.8654717432609225,2.1502403559277577e-05,1091.0639878592738,40637.46533330235,3964,0.061539878986652426,0.061716606776048295,3911.3390790277626
100,240.25275,1107,40938,0.8654328986505,2.1727621667808994e-05,1090.789213798706,40527.12716029731,3954,0.061858538888252206,0.06169932164505972,3903.10881333658
101,240.787657325,1103,40597,0.8649750843904328,2.1901430201813764e-05,1090.5270561054404,40411.52916260766,3943,0.06220006177315109,0.06170521924734509,3895.5087091439605
102,241.3224593,1097,40336,0.8650023747478218,2.204445512749616e-05,1091.0336813970662,40309.47158485958,3915,0.06212127454928418,0.061724169388406386,3890.1932093591413
103,241.85715592499997,1104,40030,0.864426750181391,2.2206924682253277e-05,1091.558948107524,40214.65113592529,3885,0.061757457541346365,0.06175196291914819,3885.8254094089725
104,242.3917472,1099,39820,0.8640504083213235,2.2314775143238127e-05,1092.4533511517607,40114.77299599008,3865,0.06172266804619666,0.06178884076771348,3881.9122743436246
105,242.92623312499998,1088,39723,0.8638615542876957,2.2359558801286287e-05,1093.911390971462,40021.411900608546,3862,0.06202541611476816,0.06181173649285085,3878.3909488322893
106,243.46061369999998,1089,39326,0.8647030136247108,2.2614300641386898e-05,1094.9293755237734,39954.07501868595,3828,0.061940569456758715,0.06184069568772786,3876.577906634277
107,243.994888925,1082,39081,0.863747888775786,2.273080577846222e-05,1095.5869895127653,39912.5300459799,3796,0.06169140688274647,0.06187011548987802,3876.3107431651165
108,244.52905879999997,1078,39255,0.8628771528607923,2.2602015686428798e-05,1095.7612176946038,39888.20913270892,3820,0.061974727012187765,0.06189533332052524,3876.721239439098
109,245.063123325,1089,39404,0.8633129275796555,2.2531982972195107e-05,1095.9066117012633,39883.55441799285,3852,0.06225586895217508,0.06192094816483336,3878.4391945456687
110,245.59708249999997,1100,39168,0.8623491049005171,2.2652860799109936e-05,1096.2580126389971,39908.38451606981,3842,0.06211414431115944,0.06194477939160902,3882.319984597538
111,246.130936325,1100,38870,0.862505803534046,2.2835737451258832e-05,1096.4318557611514,39977.13705859626,3819,0.06209037012997277,0.061987720422287396,3890.182201182285
112,246.66468479999997,1095,38897,0.8631762817630669,2.2834143213667713e-05,1096.2243538924795,40094.05014836047,3815,0.06210886954117618,0.06202908066840535,3901.127500056551
113,247.19832792499997,1095,39181,0.8629529675416884,2.2658009965385927e-05,1095.680513714899,40259.480350630045,3827,0.06190168322543435,0.062058676660833215,3914.736868332163
114,247.7318657,1091,39767,0.8621360146885437,2.2291240425290717e-05,1095.013386486649,40470.44927404847,3867,0.06188048342060703,0.06208853172185748,3931.494439285072
115,248.265298125,1089,39991,0.8624878814902607,2.217078508791992e-05,1094.544134634965,40720.257808783106,3872,0.06170129489968114,0.06211217602043533,3950.8444358874867
116,248.79862519999998,1090,39909,0.862427427307537,2.2216631734654086e-05,1094.026931527307,40999.292350901844,3869,0.061740019590603705,0.06212768621050469,3971.866089832083
117,249.33184692499998,1084,40154,0.8621956715984717,2.2067972142269557e-05,1093.508505288887,41299.89761942434,3892,0.061966865775492916,0.062139039628341664,3994.2757480349865
118,249.8649633,1093,40697,0.8614594306460737,2.175182887198449e-05,1093.3808013771336,41640.50721420564,3928,0.06166643485207603,0.06213149023662346,4018.8233255565606
