,x_(nm),baseline_dark,baseline_light,baseline_mirror,baseline_calibration,baseline_dark_smoothed,baseline_light_smoothed,raw_signal,calibrated_signal,calibrated_signal_smoothed,raw_signal_smoothed
0,186.23,1210,1185,0.3621226043733797,-0.014484904174935188,1185.8559561866984,4014.9314531811897,1191,0.27521317932376854,,1345.5484788980905
1,186.775442325,1205,1187,1.18800459154587,-0.06600025508588166,1191.6707128198793,3045.917019076631,1194,0.7260028059446982,,1294.8689604143544
2,187.3207793,1197,1180,1.908567993433533,-0.11226870549609017,1197.0988363866745,2198.1325292574793,1196,0.11226870549609017,,1250.8112680195445
3,187.86601092499998,1187,1174,1.7279185264672412,-0.13291680972824932,1202.152716503469,1467.4496736382098,1194,-0.9304176680977452,,1213.159558917907
4,188.41113719999998,1193,1179,1.043047789334166,-0.07450341352386901,1206.844742786648,849.7401421332984,1185,0.5960273081909521,,1181.6979903136871
5,188.956158125,1196,1194,0.840365554154959,-0.4201827770774795,1211.187304852597,340.8756246572211,1191,2.1009138853873974,,1156.2107194111318
6,189.50107369999998,1192,1211,0.8202728553565946,0.04317225554508392,1215.192792317701,-63.27218887554682,1196,0.1726890221803357,,1136.4819034144862
7,190.045883925,1209,1218,0.837733819880384,0.09308153554226489,1218.873594798345,-366.8316085505294,1213,0.37232614216905957,,1122.295699527997
8,190.59058879999998,1229,1221,0.8116271105193998,-0.10145338881492498,1222.2421019109145,-573.930944453251,1226,0.3043601664447749,,1113.4362649559098
9,191.135188325,1233,1216,0.8262856362484797,-0.04860503742638116,1225.3107032717942,-688.6985066692368,1236,-0.14581511227914348,,1109.6877569024707
10,191.67968249999998,1238,1226,0.8012221689422371,-0.06676851407851976,1228.0917884973699,-715.2626052840087,1239,-0.06676851407851976,,1110.8343325719256
11,192.22407132499998,1230,1231,0.7775424502505143,0.7775424502505143,1230.5977472040263,-657.7515503830928,1223,-5.4427971517536,,1116.6601491685208
12,192.7683548,1226,1226,0.7753865851703869,inf,1232.8409690081487,-520.2936520520143,1215,-inf,,1126.9493638965018
13,193.312532925,1228,1212,0.7956261498651602,-0.049726634366572514,1234.8338435261223,-307.01722037629406,1218,0.49726634366572514,,1141.4861339601152
14,193.8566057,1238,1211,0.7908861747409445,-0.029292080545960907,1236.5887603743322,-22.05056544146146,1223,0.4393812081894136,,1160.0546165636065
15,194.400573125,1247,1226,0.7942231778648126,-0.03782015132689583,1238.118109169164,330.47800266696277,1227,0.7564030265379167,,1182.438968911222
16,194.9444352,1246,1237,0.7947581770897779,-0.08830646412108643,1239.4342795270022,746.4401738634542,1248,-0.17661292824217287,,1208.4233482072073
17,195.488191925,1247,1241,0.7914877943554887,-0.13191463239258144,1240.5496610642324,1221.7076380624885,1256,-1.187231691533233,,1237.791911655809
18,196.0318433,1259,1255,0.7911116722494277,-0.19777791806235692,1241.4766433972397,1752.15208517854,1262,-0.5933337541870708,,1270.3288164612725
19,196.575389325,1250,1247,0.7900325230816138,-0.2633441743605379,1242.2276161424095,2333.645205126084,1250,-0.0,,1305.8182198278441
20,197.11883,1236,1238,0.798472358442206,0.399236179221103,1242.8149689161264,2962.0586878195977,1230,-2.395417075326618,,1344.0442789597696
21,197.662165325,1244,1245,0.7981102791346143,0.7981102791346143,1243.2510913347762,3633.2642231735576,1244,0.0,,1384.7911510612955
22,198.2053953,1248,1246,0.8040599544843242,-0.4020299772421621,1243.5483730147437,4343.133501102442,1255,-2.814209840695135,,1427.8429933366672
23,198.74851992499998,1240,1245,0.8074165803696804,0.1614833160739361,1243.7192035724142,5087.538211520716,1241,0.1614833160739361,,1472.9839629901307
24,199.2915392,1246,1249,0.8060625325032217,0.26868751083440723,1243.775972624173,5862.350044342863,1240,-1.6121250650064434,,1519.9982172259329
25,199.83445312499998,1270,1264,0.8122546130835153,-0.13537576884725255,1243.731069786381,6663.440689483212,1269,0.13537576884725255,-inf,1568.6699132482884
26,200.3772617,1252,2252,0.8144257223941842,0.0008144257223941842,1244.578314344582,7377.250152891204,1329,0.06271078062435219,-inf,1612.596344198026
27,200.919964925,1232,6391,0.8150182986479615,0.0001579798989431986,1245.2053274139605,8107.469251851529,1559,0.05165942695442594,-inf,1657.4431810459719
28,201.4625628,1235,11155,0.8232603193402961,8.298995154640081e-05,1245.06740809529,8857.350200457371,1823,0.04879809150928368,-inf,1703.5647466533458
29,202.005055325,1223,13135,0.8194894939197722,6.879528995296947e-05,1244.8089424448785,9624.433056241181,1942,0.049463813476185045,-inf,1751.0142925094233
30,202.5474425,1224,14065,0.8269202298982968,6.439687173104095e-05,1244.7242293143433,10404.31284966797,2010,0.05061594118059819,-inf,1799.551133660977
31,203.089724325,1229,14749,0.8298864771900701,6.13821358868395e-05,1244.3120795487769,11197.372148859327,2058,0.05088579065018995,-inf,1848.7905954834412
32,203.63190079999998,1240,15417,0.8293789756785952,5.850172643567717e-05,1243.1115087544215,12005.320324355927,2099,0.05025298300824669,inf,1898.7833926022874
33,204.173971925,1242,15893,0.8303112569560028,5.6672667869497156e-05,1242.3814582436507,12826.837618065847,2135,0.05060869240746096,inf,1950.835556864218
34,204.71593769999998,1248,16238,0.832804584655424,5.555734387294356e-05,1242.4621395727863,13652.389635099062,2162,0.05077941229987041,inf,2004.2267548528464
35,205.257798125,1250,16596,0.8371769300637781,5.455342956234707e-05,1242.2099028290322,14473.928333597314,2183,0.050898349781669815,inf,2058.318104600291
36,205.7995532,1239,17046,0.8381556767340916,5.302433584703559e-05,1241.8814016172269,15287.399578699113,2214,0.051698727450859704,inf,2112.2590772157514
37,206.34120292499998,1244,17665,0.840625124319978,5.1192078699225265e-05,1241.3891367867664,16093.96437065361,2251,0.05155042325011984,inf,2165.8470633536017
38,206.88274729999998,1248,18300,0.8415937915656597,4.935455029120688e-05,1240.82291784636,16891.341230831633,2276,0.05073647769936067,-0.06285006345581202,2219.016784072077
39,207.424186325,1236,18684,0.8431564976534377,4.8323962497331366e-05,1240.221522571269,17669.077170490502,2300,0.051416696097160576,-0.020229691221848388,2271.1966975469
40,207.96552,1231,18974,0.844165982526256,4.7577409825072196e-05,1239.9332261206132,18424.092504926142,2336,0.05257303785670478,0.02490062724464491,2322.724546422298
41,208.506748325,1229,19325,0.8476484869242688,4.68417598875038e-05,1240.019773947291,19162.136243176148,2378,0.05382118211074186,0.08444007074644938,2373.7351468888987
42,209.0478713,1237,19774,0.8491768105118729,4.580982955774251e-05,1239.864119232575,19880.361525741988,2422,0.05428464802592487,0.11985231343878679,2424.1663004824113
43,209.588888925,1245,20367,0.8502736512177026,4.446572802100735e-05,1239.3810958345364,20570.084984936973,2466,0.05429265391364998,0.12320734428636573,2473.869781874967
44,210.12980119999997,1248,20849,0.8513731200582484,4.343518800358392e-05,1239.7319531585983,21229.183967926387,2501,0.05442429056849065,0.14037576493285067,2522.812158825746
45,210.670608125,1246,21310,0.8534308197221572,4.253542761773112e-05,1240.2081360845987,21843.208589095597,2535,0.054828166199255415,0.1746109716668524,2568.950689709797
46,211.2113097,1245,21742,0.8557212941711507,4.17486117076231e-05,1240.1319395682565,22411.138077872227,2569,0.05527516190089298,0.1324705162956975,2612.232893157213
47,211.751905925,1243,22025,0.8575135521308375,4.126232086088141e-05,1240.2075471697876,22930.38707558451,2588,0.0554978215578855,0.15484236945763497,2653.2806405580595
48,212.29239679999998,1241,22397,0.8580327959771828,4.055742087243254e-05,1240.3335975899554,23389.557113410956,2614,0.055685338857849875,0.08669389025631084,2691.4608031891485
49,212.83278232499998,1242,22827,0.8587529108532552,3.978470747524926e-05,1240.5054701125496,23792.571202065275,2657,0.0562953610774777,0.0987771072324069,2726.2504926498377
50,213.37306249999997,1244,23277,0.8598387128136875,3.902504029472552e-05,1240.9380959930904,24141.7325194224,2698,0.05674240858853091,0.05436560601093493,2758.0858909601043
51,213.91323732499998,1240,23856,0.8611437003932625,3.807674656850294e-05,1241.2361321887008,24428.39257967291,2753,0.05761011755814495,0.05698598976499308,2787.1671159029115
52,214.45330679999998,1238,24549,0.8624756676121401,3.6998655896878734e-05,1240.8139482207741,24686.515164555913,2816,0.05838387900527464,0.05773774276327734,2814.9401118937603
53,214.993270925,1251,25061,0.8630074298534857,3.6245587142103555e-05,1239.022197558245,25023.272214545716,2865,0.05850037764735514,0.05819912258497417,2846.701125733258
54,215.5331297,1238,25573,0.8629495266956824,3.546125032651253e-05,1236.9182540940667,25470.755736256277,2904,0.05907844304396987,0.058559027281531166,2884.0253686379665
55,216.07288312499998,1228,26166,0.8648478670709356,3.4679920886636286e-05,1235.8418537225973,25957.847131304854,2937,0.059267984795261415,0.058902267527793296,2924.3765430700023
56,216.61253119999998,1232,26674,0.8650803831098881,3.400205892264319e-05,1235.7841174205296,26453.66429590654,2993,0.05987762576277466,0.05926460085648512,2966.5824367482273
57,217.152073925,1246,27017,0.8652291434094919,3.357375124789461e-05,1236.3427937212384,26957.519377561828,3044,0.0603656047437145,0.05962079373251004,3010.008108903881
58,217.69151129999997,1240,27256,0.8680312398394996,3.336528443417511e-05,1237.2308093048302,27474.141973770118,3057,0.060624721816896175,0.05993937360221907,3054.314367256278
59,218.230843325,1227,27680,0.868212549145114,3.2820948442335995e-05,1238.0659584588313,28002.72570160086,3083,0.06091568030897561,0.06025019763848371,3099.632653061165
60,218.77006999999998,1239,28264,0.868144571802742,3.212375843858435e-05,1238.944438152596,28536.7644114244,3122,0.060489037139854325,0.06054617247014057,3145.465763663896
61,219.30919132499997,1246,28914,0.8681762475955156,3.137835216117954e-05,1239.84502480235,29072.026184057977,3179,0.060654354727560054,0.06081157121585769,3190.736052911669
62,219.84820729999998,1243,29422,0.868951283960652,3.083683892120558e-05,1240.4203492717602,29610.557589072792,3217,0.06087192003045982,0.061063892486964116,3235.527531767362
63,220.38711792499998,1239,29875,0.8691522224557424,3.035173286966554e-05,1241.0409295793552,30159.395637499707,3255,0.061189093465245724,0.061297038862369146,3281.134612335437
64,220.9259232,1239,30563,0.8692686507714266,2.9643590600580635e-05,1241.7432331422895,30725.01474552026,3317,0.06159938126800656,0.06147797151182616,3327.1934358648477
65,221.464623125,1236,31279,0.8701622824311823,2.8963894498924286e-05,1242.0932976964132,31299.522888400046,3365,0.0616641313882098,0.0616429370500976,3373.293596683892
66,222.0032177,1231,31698,0.86932404321908,2.8533299741329308e-05,1242.1896532197547,31874.665337832637,3400,0.06188872713894327,0.06181571105351232,3419.6752361321232
67,222.54170692499997,1238,32054,0.8705973257298546,2.8251470850527473e-05,1242.531269111394,32447.05873292651,3448,0.062435750579665716,0.06198601532398439,3465.7669029875433
68,223.0800908,1252,32545,0.8704844215444587,2.7817224987839413e-05,1242.8928401549058,33018.556094135136,3482,0.06203241172288189,0.06215226372746262,3512.035085732339
69,223.61836932499997,1239,32969,0.8703398065724872,2.7429555832728874e-05,1243.1219733176051,33592.9254569746,3505,0.06215537351696363,0.06230035882961956,3558.2393938706878
70,224.1565425,1227,33734,0.8697053263836744,2.6754401402272567e-05,1243.4027950802724,34166.42666878006,3570,0.06268556248552462,0.062421254753729935,3603.740922784139
71,224.69461032499999,1230,34424,0.8700422735223692,2.621082947286766e-05,1243.4927404923997,34735.82033568078,3619,0.06261767161068084,0.06252589021730495,3648.425876010711
72,225.23257279999999,1231,35096,0.8700397124616915,2.5691413331217823e-05,1243.5228204489106,35300.001155178375,3672,0.0627127399415027,0.06261285832996538,3692.121067294772
73,225.77042992499997,1233,36048,0.8700678242154535,2.499117691269434e-05,1243.573625676662,35854.71322113682,3739,0.06262788934321202,0.06268336653691685,3734.8973023170824
74,226.30818169999998,1222,36761,0.8699872642519537,2.447979020940245e-05,1243.4629096921547,36399.360914176286,3791,0.06288858104795489,0.06274029951455212,3776.776620081922
75,226.84582812499997,1216,37246,0.8700242014773532,2.414721624971838e-05,1243.2987836643854,36939.34659901626,3829,0.06309667606051413,0.0627884736368302,3818.094973838519
76,227.3833692,1247,37869,0.8696880407569096,2.3747693756673848e-05,1243.2210922104452,37471.50248023666,3882,0.06257517304883559,0.06281813809346143,3858.2844911548777
77,227.92080492499997,1261,38228,0.87010037851645,2.353721910126464e-05,1243.184738046138,37991.81816122602,3914,0.062444242275655086,0.06284675048548806,3897.5359351286943
78,228.45813529999998,1296,38384,0.8693067287349536,2.3439029571153842e-05,1243.1006591315531,38504.154612787774,3952,0.0622540625409846,0.06288050265098544,3936.246868558669
79,228.99536032499998,1322,38755,0.8691277262341458,2.321822259060577e-05,1243.2820901945447,38999.86522910977,4010,0.06241058232354831,0.06290267045393035,3973.742780130844
80,229.53248,1285,39287,0.86926662631248,2.287423362750592e-05,1243.3955921991198,39472.70715078408,4038,0.0629727651765238,0.06291813627859699,4009.2557702325435
81,230.069494325,1253,40023,0.8686441253792921,2.2405058689174417e-05,1243.0108722734137,39933.188339485976,4062,0.06293580985789093,0.06291393520988232,4042.6756664929344
82,230.60640329999998,1234,40626,0.868302707705708,2.204261544744385e-05,1242.6339894448106,40372.84815058022,4088,0.06290962448700474,0.06291173328865234,4074.55473510151
83,231.143206925,1230,41091,0.8687016218294412,2.179327216651467e-05,1242.9448458628494,40772.73865772646,4117,0.06291717674472785,0.06291258992146141,4104.292373553116
84,231.67990519999998,1231,41380,0.8683284847277679,2.1627649125202817e-05,1243.0852340936135,41128.9134748231,4133,0.06276343776133857,0.0629113357013061,4130.612403451868
85,232.216498125,1234,41703,0.8683608504247778,2.1457432860332052e-05,1242.6599696482128,41458.23522616515,4151,0.0625913316535886,0.06289976330214832,4153.909782780957
86,232.75298569999998,1235,42129,0.868249886800152,2.1231718266742115e-05,1242.375365240412,41768.532673445945,4195,0.06284588606955666,0.06285095983559022,4174.610025142052
87,233.289367925,1234,42543,0.867778574191436,2.1007009954039943e-05,1242.5752565176774,42050.82248748475,4245,0.06325210697161426,0.06279284965172517,4193.4738499172445
88,233.8256448,1236,42869,0.8676471171202086,2.084036982970741e-05,1243.0096491426518,42293.98194749517,4254,0.06289623614605697,0.06273309855370045,4209.661260730627
89,234.36181632499998,1237,42962,0.8677489292852631,2.0796858700665385e-05,1243.4072572424955,42491.16306145018,4255,0.06276491955860813,0.06268315492916449,4222.909601576399
90,234.89788249999998,1236,42994,0.8672589311593729,2.076868938070245e-05,1243.6080545425477,42664.0653921938,4259,0.06278374799786351,0.06263285020525806,4234.175791071064
91,235.433843325,1237,43105,0.8668004592010585,2.0703173287500202e-05,1243.086208068109,42822.47686244227,4258,0.06254428650153811,0.06258555182661653,4243.850415637871
92,235.9696988,1222,43299,0.8665578153052318,2.0594572220101997e-05,1242.5691182132991,42948.01614985534,4277,0.0629164181324116,0.06254029365474077,4251.303744139083
93,236.505448925,1224,43457,0.8666098942893835,2.0519733248629828e-05,1242.0373960904878,43034.47119979985,4278,0.06266726534131549,0.062489956915954686,4255.37556909548
94,237.04109369999998,1234,43579,0.8664654382940954,2.0462048371569145e-05,1241.5336700717783,43090.293211623444,4282,0.06236832343654276,0.062418614407070055,4256.474325579207
95,237.576633125,1235,43664,0.8658853313998153,2.0407865643777023e-05,1241.1346576366157,43110.63537112876,4294,0.06242766100431391,0.06234373076156627,4255.010509864242
96,238.11206719999998,1240,43774,0.8659634438688039,2.035932298558339e-05,1240.6749869758987,43098.2943668025,4304,0.06238096562782751,0.062272657073895586,4251.234456046488
97,238.64739592499998,1242,43823,0.8653764850454776,2.0323066274758168e-05,1240.3531676821433,43062.19309610555,4315,0.06245278266233185,0.06220422093024744,4245.909601576398
98,239.1826193,1240,43767,0.865240351462597,2.0345671019883768e-05,1240.1790754037227,43017.245917233995,4300,0.06225775332084433,0.06213157453784689,4239.913633377798
99,239.71773732499997,1244,43706,0.8654717432609225,2.0382265160871425e-05,1239.9128859090567,42983.319961946225,4279,0.06186017476324478,0.06204257518511579,4233.911255067984
100,240.25275,1248,43399,0.8654328986505,2.0531728752591872e-05,1239.291444879815,42952.23853314828,4253,0.061697844901538575,0.061952105693003336,4227.520668644735
101,240.787657325,1249,43087,0.8649750843904328,2.0674388938057097e-05,1238.715486194454,42916.64825930291,4236,0.06175439975797655,0.06186297471998815,4220.744796031539
102,241.3224593,1245,42944,0.8650023747478218,2.0743959681235085e-05,1238.705316088676,42891.38383655267,4221,0.061734024011355616,0.061771257386340386,4215.200819950541
103,241.85715592499997,1245,42727,0.864426750181391,2.0838598673675114e-05,1239.3036761874323,42867.60821309574,4197,0.06151554328468894,0.06168114909581666,4210.39912568793
104,242.3917472,1251,42563,0.8640504083213235,2.091524032536124e-05,1241.077963260752,42833.55444064337,4178,0.06121890843233235,0.061583972992156844,4205.730820630058
105,242.92623312499998,1242,42560,0.8638615542876957,2.0907632370581726e-05,1243.5475548709812,42803.6064463513,4171,0.06123845521343387,0.06148690706288823,4202.011665043295
106,243.46061369999998,1248,42227,0.8647030136247108,2.1101125298926542e-05,1245.397925207795,42793.14090919305,4157,0.06138317349457731,0.06139271733062466,4198.957258374968
107,243.994888925,1251,42028,0.863747888775786,2.1182232355881648e-05,1246.670388910257,42801.02292237568,4144,0.06128019820556561,0.06128023676895942,4195.593875285884
108,244.52905879999997,1242,42276,0.8628771528607923,2.1028346075468934e-05,1247.3196221884739,42820.5824820486,4147,0.06108734534923725,0.061167037169978504,4192.484042673593
109,245.063123325,1242,42544,0.8633129275796555,2.090244849110589e-05,1247.8605857437076,42854.94251285338,4154,0.06086793000610036,0.06106706066409239,4190.978980271273
110,245.59708249999997,1247,42384,0.8623491049005171,2.0962858373253204e-05,1248.2488618088505,42911.92310131518,4157,0.06100191786616682,0.06097136210529166,4191.1552923055215
111,246.130936325,1254,42057,0.862505803534046,2.113829383952273e-05,1248.3528279235982,43005.55156402101,4157,0.06136446701613449,0.06088417739848243,4194.158961697805
112,246.66468479999997,1246,42086,0.8631762817630669,2.1135560278233764e-05,1248.2071168089637,43139.03286597576,4150,0.06137766704799085,0.06081183551696778,4200.438809485979
113,247.19832792499997,1235,42395,0.8629529675416884,2.0965815537941893e-05,1248.0669550838966,43311.35210310457,4154,0.06119921555525239,0.06075045465339991,4209.938254547021
114,247.7318657,1230,42961,0.8621360146885437,2.065936629097179e-05,1248.1737751704218,43520.241930733726,4169,0.06071787752916609,0.06067883947970485,4221.652902670421
115,248.265298125,1234,43108,0.8624878814902607,2.0597217401974034e-05,1248.464246075765,43758.260572152554,4181,0.06069999968361748,0.06060810861485613,4235.605585630397
116,248.79862519999998,1255,42996,0.862427427307537,2.066139832077662e-05,1248.7321117125857,44016.61417019553,4170,0.06022797610506385,0.060554774625545316,4251.932070941503
117,249.33184692499998,1250,43244,0.8621956715984717,2.0531401428739144e-05,1249.072595075742,44287.568891706775,4168,0.059910629369060824,0.060503526975542586,4269.427370948298
118,249.8649633,1258,43695,0.8614594306460737,2.0299725019348062e-05,1248.8123853314673,44587.445672607806,4226,0.06024958385742505,0.060465449547376364,4288.94896826647
119,250.397974325,1276,44069,0.861591555373828,2.0133936750726242e-05,1248.3607782735494,44923.51047588761,4268,0.060240738758172915,0.06042566948140139,4310.622573557643
