,x_(nm),baseline_dark,baseline_light,baseline_mirror,baseline_calibration,baseline_dark_smoothed,baseline_light_smoothed,raw_signal,calibrated_signal,calibrated_signal_smoothed,raw_signal_smoothed
0,186.23,1196,1190,0.3621226043733797,-0.06035376739556328,1166.407963927386,4010.0823396605947,1197,-0.06035376739556328,,1580.9157346538027
1,186.775442325,1187,1187,1.18800459154587,inf,1176.667866979076,3046.0723109176006,1187,,,1447.9629300776905
2,187.3207793,1185,1191,1.908567993433533,0.31809466557225546,1186.2300746003928,2202.702048443959,1183,-0.6361893311445109,,1332.2863732430553
3,187.86601092499998,1188,1194,1.7279185264672412,0.28798642107787353,1195.116400816091,1475.8586088813881,1189,0.28798642107787353,,1233.2708271116853
4,188.41113719999998,1195,1198,1.043047789334166,0.34768259644472205,1203.3486596509265,861.429048871606,1187,-2.7814607715577764,,1150.3010546453693
5,188.956158125,1194,1202,0.840365554154959,0.10504569426936987,1210.9486651296543,355.3004250563308,1183,-1.1555026369630685,,1082.7618188058957
6,189.50107369999998,1197,1206,0.8202728553565946,0.09114142837295496,1217.9382312770292,-46.64020592271845,1194,-0.27342428511886485,,1030.0378825550529
7,190.045883925,1217,1223,0.837733819880384,0.13962230331339734,1224.3391721178068,-348.5057874238246,1224,0.9773561231937814,,991.5140088546291
8,190.59058879999998,1228,1230,0.8116271105193998,0.4058135552596999,1230.173301676742,-554.4092628052704,1241,5.275576218376099,,966.5749606664133
9,191.135188325,1228,1233,0.8262856362484797,0.16525712724969593,1235.4624339785905,-668.4635754253359,1247,3.139885417744223,,954.6055009521938
10,191.67968249999998,1246,1242,0.8012221689422371,-0.20030554223555927,1240.228383048107,-694.7816686423039,1252,-1.2018332534133556,,954.990392673759
11,192.22407132499998,1260,1232,0.7775424502505143,-0.02776937322323265,1244.492962910047,-637.4764858144572,1238,0.6109262109111183,,967.1143987928975
12,192.7683548,1248,1227,0.7753865851703869,-0.03692317072239938,1248.2779875891656,-500.66097030007586,1225,0.8492329266151858,,990.3622822713979
13,193.312532925,1235,1240,0.7956261498651602,0.15912522997303205,1251.605271110218,-288.4480654574427,1218,-2.705128909541545,,1024.1188060710483
14,193.8566057,1236,1246,0.7908861747409445,0.07908861747409444,1254.4966274979593,-4.950714644839536,1226,-0.7908861747409445,,1067.7687331536376
15,194.400573125,1247,1234,0.7942231778648126,-0.06109409060498558,1256.9738707771448,345.7181387794535,1232,0.9164113590747837,,1120.696826480954
16,194.9444352,1255,1237,0.7947581770897779,-0.04415323206054322,1259.0588149725297,759.4455514571519,1247,0.35322585648434573,,1182.2878490147862
17,195.488191925,1272,1263,0.7914877943554887,-0.08794308826172097,1260.7732741088694,1232.1185800299736,1264,0.7035447060937677,,1251.9265637169224
18,196.0318433,1284,1276,0.7911116722494277,-0.09888895903117846,1262.1390622109188,1759.6242811396378,1268,1.5822233444988554,,1328.9977335491517
19,196.575389325,1280,1258,0.7900325230816138,-0.035910569230982445,1263.1779933034331,2337.849711427864,1260,0.718211384619649,,1412.886121473262
20,197.11883,1272,1246,0.798472358442206,-0.03071047532470023,1263.9118814111678,2962.6819275363696,1245,0.8291828337669062,,1502.9764904510419
21,197.662165325,1276,1261,0.7981102791346143,-0.05320735194230762,1264.3625405588778,3630.0079861068707,1256,1.0641470388461525,,1598.6536034442797
22,198.2053953,1269,1267,0.8040599544843242,-0.4020299772421621,1264.5517847713184,4335.714943781085,1263,2.4121798634529728,,1699.3022234147643
23,198.74851992499998,1257,1261,0.8074165803696804,0.2018541450924201,1264.5014280732448,5075.6898572007385,1254,-0.6055624352772604,,1804.3071133242838
24,199.2915392,1263,1265,0.8060625325032217,0.40303126625161084,1264.2332844894122,5845.819783007536,1261,-0.8060625325032217,,1913.0530361346282
25,199.83445312499998,1293,1278,0.8122546130835153,-0.05415030753890102,1263.769168044552,6641.991777843085,1279,0.7581043055446143,,2024.9247548075448
26,200.3772617,1291,2267,0.8144257223941842,0.0008344525844202707,1263.8870416090722,7349.9125914515325,1422,0.10931328855905546,,2123.486330381168
27,200.919964925,1256,6368,0.8150182986479615,0.00015943237453989857,1263.141634012071,8074.8333597588435,2005,0.11941484853038403,0.39459970315803844,2222.750458673993
28,201.4625628,1238,11079,0.8232603193402961,8.365616495684342e-05,1262.1148383881614,8816.806767990049,2633,0.11670035011479657,0.35779393985232305,2323.7139459556965
29,202.005055325,1242,13041,0.8194894939197722,6.945414814134861e-05,1261.528120682211,9575.566671951616,2917,0.11633569813675892,0.344903809196393,2427.2828376633206
30,202.5474425,1264,13929,0.8269202298982968,6.529176706658483e-05,1261.1520306235461,10348.11323019754,3053,0.11680697128212027,0.23184123989739613,2532.1335930598166
31,203.089724325,1263,14610,0.8298864771900701,6.217775359182364e-05,1259.9947224172447,11135.010849622657,3149,0.11726724327417938,0.15241696164946986,2637.462184873899
32,203.63190079999998,1263,15304,0.8293789756785952,5.906836946646216e-05,1258.4062606174307,11937.401164239052,3231,0.11624655110999754,0.0916244633643912,2744.060658225502
33,204.173971925,1251,15824,0.8303112569560028,5.697600061456137e-05,1257.5449500554698,12752.16917710456,3284,0.11583220924940327,0.06640618373634452,2852.4523545266616
34,204.71593769999998,1248,16197,0.832804584655424,5.570971868723152e-05,1257.0980769666119,13570.515957326066,3347,0.11693469952449896,0.18297136624449034,2961.239371220129
35,205.257798125,1248,16550,0.8371769300637781,5.4710294736882635e-05,1256.5461052345227,14385.61108971863,3403,0.11790068515798208,0.2587707431509099,3069.0082448072976
36,205.7995532,1241,16976,0.8381556767340916,5.3266963885229846e-05,1256.1751795057405,15193.099617205082,3439,0.1170807866197352,0.21064135815458745,3174.643072323208
37,206.34120292499998,1255,17557,0.840625124319978,5.1565766428657713e-05,1255.9627624634518,15994.225463770106,3500,0.11576514563233657,0.21270609634345528,3278.2451924165266
38,206.88274729999998,1244,18210,0.8415937915656597,4.960472660412942e-05,1255.5306348954434,16786.123490905473,3577,0.11572782716743393,0.22453497849551932,3380.2764728532275
39,207.424186325,1232,18596,0.8431564976534377,4.85577342578575e-05,1254.3919454574043,17560.60499671533,3608,0.11537317659666942,0.12471750915539262,3478.709121384337
40,207.96552,1236,18863,0.844165982526256,4.789050788711953e-05,1253.0638746064221,18315.724931481676,3637,0.114985109436974,0.0693150508278194,3573.1091757457007
41,208.506748325,1240,19246,0.8476484869242688,4.7075890643356035e-05,1251.991483385783,19051.410496273613,3690,0.11533593207622228,0.06249700606851121,3664.2182835397607
42,209.0478713,1255,19707,0.8491768105118729,4.602085467764323e-05,1251.1827900971468,19765.21832884059,3759,0.11523622011281864,0.040702592086556945,3751.8748782531165
43,209.588888925,1258,20240,0.8502736512177026,4.4793680919697745e-05,1250.795510657069,20451.002718067968,3817,0.11462702947350653,0.030356370962102412,3835.5109515503573
44,210.12980119999997,1254,20669,0.8513731200582484,4.385130672460718e-05,1250.8633491132061,21107.48069038896,3836,0.11322407396293573,0.05071509028187089,3913.7602437200544
45,210.670608125,1255,21159,0.8534308197221572,4.287735227703764e-05,1250.9669301682698,21720.34000770078,3871,0.11216715355673047,0.050695582490519926,3984.4213458967733
46,211.2113097,1250,21612,0.8557212941711507,4.2025404880225455e-05,1250.9239167364822,22286.441051892023,3915,0.11199770400580084,0.05704503945888113,4046.789915966309
47,211.751905925,1241,21857,0.8575135521308375,4.1594565004406165e-05,1251.264762508753,22803.844798296235,3933,0.1119725689918614,0.07456732351656017,4100.6082130964805
48,212.29239679999998,1250,22184,0.8580327959771828,4.098752249819351e-05,1251.3531903327132,23261.70155609369,3981,0.11193692394256646,0.14093123435357377,4144.92235384712
49,212.83278232499998,1254,22621,0.8587529108532552,4.0190616878984194e-05,1250.8994088201077,23664.94468730843,4039,0.11193086800797097,0.1229568603202128,4180.479263403395
50,213.37306249999997,1253,23147,0.8598387128136875,3.9272801352593745e-05,1250.8021019728405,24017.217536070573,4076,0.11086711821837214,0.09435417817906043,4207.856961652505
51,213.91323732499998,1262,23714,0.8611437003932625,3.835487708860068e-05,1251.0408616276459,24308.575981335467,4142,0.11046204601516996,0.11095661257062621,4225.455548256958
52,214.45330679999998,1276,24370,0.8624756676121401,3.734630932762363e-05,1251.4787650909182,24569.994903621355,4240,0.11069446084707645,0.11021747502830259,4238.001336383529
53,214.993270925,1277,24977,0.8630074298534857,3.6413815605632306e-05,1250.7282384651735,24906.987519535636,4301,0.1101153783914321,0.10973942633629478,4259.632992819688
54,215.5331297,1256,25523,0.8629495266956824,3.556061839929461e-05,1248.9434641781,25355.039276087304,4326,0.10917109848583446,0.10917427284362115,4294.420689030248
55,216.07288312499998,1244,26095,0.8648478670709356,3.480133061329265e-05,1248.0790278375262,25841.070556524,4371,0.10882376082776613,0.10858845515680407,4335.001359034097
56,216.61253119999998,1258,26559,0.8650803831098881,3.4191549073549985e-05,1248.4422297220535,26333.313370630764,4426,0.10831882746500636,0.1080103628993567,4377.00774649474
57,217.152073925,1266,26866,0.8652291434094919,3.379801341443328e-05,1249.1056196063091,26834.198283086305,4453,0.10771426875179886,0.10743861180512933,4419.85567057003
58,217.69151129999997,1253,27155,0.8680312398394996,3.351213187551153e-05,1249.7282837663126,27346.250741805634,4464,0.10760745545226752,0.10682229565768754,4462.843507214121
59,218.230843325,1242,27608,0.868212549145114,3.292924786259251e-05,1249.835443611383,27870.651702189774,4493,0.10705298480128823,0.10617621652527334,4505.528347187846
60,218.77006999999998,1237,28188,0.868144571802742,3.2211961404131273e-05,1250.1684975876904,28403.996466510587,4544,0.10652495636346213,0.1055424146910871,4548.536841151467
61,219.30919132499997,1242,28836,0.8681762475955156,3.146250081885611e-05,1250.6648168701204,28938.47799497102,4620,0.10628032776609594,0.10494220046306424,4591.628032344926
62,219.84820729999998,1248,29322,0.868951283960652,3.095217225762813e-05,1250.7343767695518,29474.54377222531,4658,0.10554690739851191,0.10433699957644789,4634.191872975517
63,220.38711792499998,1241,29786,0.8691522224557424,3.0448492641644506e-05,1250.987474234953,30021.275680082785,4656,0.103981602371216,0.10370141055641208,4677.085958911777
64,220.9259232,1247,30436,0.8692686507714266,2.9780693095735606e-05,1250.8645269428284,30585.942920563866,4705,0.10298163672505373,0.10306429520317809,4721.150150626198
65,221.464623125,1249,31046,0.8701622824311823,2.9203016492639605e-05,1250.3013205281875,31160.95809644553,4768,0.10276541503759877,0.10242277566201724,4765.222156787152
66,222.0032177,1247,31517,0.86932404321908,2.871899713310472e-05,1249.6372058257025,31736.17329950787,4786,0.1016365308540576,0.10178041530486207,4808.627262225553
67,222.54170692499997,1243,31940,0.8705973257298546,2.8360990511445894e-05,1249.2612743210252,32308.70391175276,4796,0.10076659928716726,0.1011480538441295,4851.165394459577
68,223.0800908,1245,32453,0.8704844215444587,2.7892989667535846e-05,1249.740469772791,32881.10426057152,4805,0.09929904321642762,0.10051595842876215,4893.63611859829
69,223.61836932499997,1244,32850,0.8703398065724872,2.7537170365515638e-05,1250.2227004008912,33452.74429771845,4825,0.09861060707891149,0.09987233077107753,4935.083082289425
70,224.1565425,1242,33567,0.8697053263836744,2.6905037165774924e-05,1250.2075471697872,34020.987927245726,4888,0.09809576550641537,0.09922040824747966,4975.46313619778
71,224.69461032499999,1241,34286,0.8700422735223692,2.6329014178313486e-05,1250.136220525922,34588.129380053244,4950,0.09765431358736472,0.09857628756025631,5016.068042311167
72,225.23257279999999,1233,34983,0.8700397124616915,2.577895444330938e-05,1249.4842691793458,35151.427982513094,5032,0.09793424793013233,0.09796009644871295,5056.300052096214
73,225.77042992499997,1235,35944,0.8700678242154535,2.506749904103989e-05,1248.4674851072264,35703.78774151101,5133,0.09771311126197349,0.09736913226915409,5095.240888808256
74,226.30818169999998,1241,36620,0.8699872642519537,2.4590499003701454e-05,1248.191759722733,36244.25857890256,5177,0.09678820407856892,0.09680052278679176,5133.776325624492
75,226.84582812499997,1234,37016,0.8700242014773532,2.431457720298902e-05,1248.020702620647,36778.58809938999,5193,0.09626141114663353,0.09626649682500628,5172.4575188564995
76,227.3833692,1257,37579,0.8696880407569096,2.3943836813967008e-05,1247.6491879770535,37307.213594871195,5254,0.09570351574542613,0.09573251419508477,5210.089197943228
77,227.92080492499997,1258,37983,0.87010037851645,2.369231799908645e-05,1247.5825726516782,37823.430089016016,5273,0.0951246567663321,0.09520896756373028,5246.591587578327
78,228.45813529999998,1271,38211,0.8693067287349536,2.3532937973333882e-05,1247.9766472626545,38330.92391673577,5299,0.09479067415658887,0.09471437824354166,5282.90350857314
79,228.99536032499998,1294,38517,0.8691277262341458,2.3349212213796465e-05,1248.5272826111336,38825.616752360576,5331,0.09426076970709633,0.09423544022083152,5318.278873813574
80,229.53248,1271,39076,0.86926662631248,2.299343013655548e-05,1248.4250379396804,39298.02826791019,5341,0.0935832606557808,0.0937742766646988,5351.441889963429
81,230.069494325,1254,39846,0.8686441253792921,2.2508398771229584e-05,1247.86242043985,39758.23194183258,5378,0.09282463653255081,0.09334424560466628,5383.847561666073
82,230.60640329999998,1245,40412,0.868302707705708,2.216924216063799e-05,1247.711454393054,40196.90040544443,5406,0.09224621663041467,0.09294177725458641,5415.058189313357
83,231.143206925,1248,40950,0.8687016218294412,2.1880550648064107e-05,1247.7032322362668,40593.31106027239,5451,0.09196395437381344,0.09257904620618976,5443.298126797785
84,231.67990519999998,1255,41281,0.8683284847277679,2.1694110946079248e-05,1247.4293868490554,40947.35450406499,5486,0.0917877834128613,0.09225353402953378,5467.677818297026
85,232.216498125,1244,41529,0.8683608504247778,2.1555438759458307e-05,1246.8761466850654,41275.72475027668,5510,0.09195550174784914,0.09194927091956305,5489.505175655062
86,232.75298569999998,1236,41965,0.868249886800152,2.1317731513176164e-05,1246.0887675824806,41584.686810572486,5535,0.09164492777514432,0.09167245233090178,5510.025912251588
87,233.289367925,1240,42428,0.867778574191436,2.1068723273561135e-05,1245.3724659674951,41867.28052730446,5558,0.09097474709523698,0.09143072184492979,5529.148542435736
88,233.8256448,1246,42715,0.8676471171202086,2.092278851962209e-05,1245.118824888422,42109.93424539546,5574,0.09055382871292442,0.09122024961390246,5545.604589005307
89,234.36181632499998,1247,42791,0.8677489292852631,2.088746700571113e-05,1244.752904935535,42304.85542141304,5577,0.09044273213472918,0.0910188481777368,5557.476794491274
90,234.89788249999998,1247,42776,0.8672589311593729,2.0883212481865032e-05,1244.3360212009095,42474.71206595764,5568,0.09023636113413881,0.09082327981072004,5567.011076128458
91,235.433843325,1251,42872,0.8668004592010585,2.082603635667232e-05,1243.8633717637758,42628.012639017055,5570,0.08994765102446774,0.09064569077122774,5575.1290176446855
92,235.9696988,1242,43092,0.8665578153052318,2.0706279935608885e-05,1243.5347799496917,42750.07103218564,5599,0.09021726167944791,0.09046320422243814,5579.984710865371
93,236.505448925,1224,43239,0.8666098942893835,2.062620241079099e-05,1242.890099435977,42833.72957484798,5619,0.0906521595954264,0.09027383394348211,5579.9647783640685
94,237.04109369999998,1223,43429,0.8664654382940954,2.0529437480313118e-05,1242.0827651815205,42886.7077623494,5665,0.09119176128755087,0.09005548881338071,5575.4927178417465
95,237.576633125,1233,43551,0.8658853313998153,2.0461395420384122e-05,1241.3922625653797,42904.27710706842,5672,0.09082813427108512,0.08984086232125947,5567.693537792369
96,238.11206719999998,1234,43586,0.8659634438688039,2.0446813464979313e-05,1240.9171215655838,42889.53330766186,5640,0.09008866012669886,0.08962917530981995,5557.066796529826
97,238.64739592499998,1248,43602,0.8653764850454776,2.0431989541613012e-05,1240.2227004008912,42854.98828965466,5627,0.08947168220272338,0.08943185732364851,5544.7255430473015
98,239.1826193,1251,43546,0.865240351462597,2.0457272761853578e-05,1239.1589390472934,42814.14328750285,5609,0.08915279469615789,0.08926028085479953,5532.501007950244
99,239.71773732499997,1233,43482,0.8654717432609225,2.0485023154652713e-05,1238.1788715485957,42784.35135563577,5580,0.08904839565327534,0.08909701697767751,5521.980520509985
100,240.25275,1231,43212,0.8654328986505,2.061487098093185e-05,1237.245645427959,42756.51518720615,5533,0.08868517495996882,0.08893535978687671,5511.827017599387
101,240.787657325,1235,42895,0.8649750843904328,2.0762724061220183e-05,1236.176108179097,42720.25228204407,5495,0.08844920450079798,0.08877959723214433,5500.914856508536
102,241.3224593,1233,42757,0.8650023747478218,2.08313836515707e-05,1235.904844956827,42691.28897596693,5483,0.08853338051917548,0.08862675006614852,5491.5457881264665
103,241.85715592499997,1233,42520,0.864426750181391,2.0937020131794296e-05,1235.69498742891,42663.88371197454,5475,0.08881483939907141,0.0884712096660751,5482.188996353154
104,242.3917472,1232,42313,0.8640504083213235,2.1032847504231237e-05,1235.7338331558803,42627.088042763455,5459,0.08890584640038544,0.08830613255353081,5471.697025980098
105,242.92623312499998,1235,42327,0.8638615542876957,2.10226212958166e-05,1236.606786110647,42591.68493057519,5447,0.08854728089797952,0.08811300047380205,5460.634057396439
106,243.46061369999998,1238,41973,0.8647030136247108,2.1227519666741397e-05,1237.303993295408,42575.8813563153,5398,0.08830648181364421,0.08789868566532269,5450.197218509941
107,243.994888925,1238,41750,0.863747888775786,2.132079109339914e-05,1237.3637907993148,42579.05266257365,5368,0.08805486721573845,0.08766914996615055,5440.553897030406
108,244.52905879999997,1244,42037,0.8628771528607923,2.115257894395588e-05,1237.1879997281696,42591.27522707115,5368,0.08723323556487404,0.08741502018363777,5430.676595166265
109,245.063123325,1243,42306,0.8633129275796555,2.1024107531832926e-05,1237.444562730729,42621.08450927459,5380,0.08697673285919282,0.08713497738882037,5421.562662800865
110,245.59708249999997,1242,42140,0.8623491049005171,2.1085361262177053e-05,1237.8791365602606,42676.04396475489,5362,0.08687168840016946,0.08683077059628523,5413.647194726844
111,246.130936325,1244,41832,0.862505803534046,2.1250266175570268e-05,1237.8364855375876,42766.07862012647,5319,0.08659483466544884,0.08652295251948229,5408.211216561993
112,246.66468479999997,1246,41811,0.8631762817630669,2.127884338131559e-05,1237.4757525651532,42898.22861219878,5305,0.08637082528475998,0.08619571824927401,5405.322929171565
113,247.19832792499997,1236,42128,0.8629529675416884,2.1103222330570486e-05,1237.1915785181761,43072.840879747295,5300,0.08576349555143846,0.0858296189928339,5404.492763142888
114,247.7318657,1231,42776,0.8621360146885437,2.075185978309168e-05,1237.0913723979922,43283.0849396354,5320,0.08485435465306188,0.08544044703784742,5405.938186595289
115,248.265298125,1237,42930,0.8624878814902607,2.0686635202318392e-05,1237.307390880857,43522.32005254848,5316,0.08438078499025672,0.08503488671111681,5409.392692926123
116,248.79862519999998,1241,42784,0.862427427307537,2.0759873560107286e-05,1237.8888536546458,43782.62080681245,5299,0.08424356690691537,0.08458859080346663,5412.734240866054
117,249.33184692499998,1234,43021,0.8621956715984717,2.0633107703316142e-05,1238.6739223991246,44055.78096899052,5302,0.08393548213709007,0.08409780598527361,5415.094792633931
118,249.8649633,1240,43524,0.8614594306460737,2.0373177340035797e-05,1239.34537588618,44357.733153637964,5356,0.08385599793158734,0.08359325695693773,5419.071734354015
