,x_(nm),baseline_dark,baseline_light,baseline_mirror,baseline_calibration,baseline_dark_smoothed,baseline_light_smoothed,raw_signal,calibrated_signal,calibrated_signal_smoothed,raw_signal_smoothed
0,186.23,1210,1185,0.3621226043733797,-0.014484904174935188,1185.8559561866984,4014.9314531811897,1192,0.2607282751488334,,1319.9763700351928
1,186.775442325,1205,1187,1.18800459154587,-0.06600025508588166,1191.6707128198793,3045.917019076631,1191,0.9240035712023432,,1275.3255262433945
2,187.3207793,1197,1180,1.908567993433533,-0.11226870549609017,1197.0988363866745,2198.1325292574793,1192,0.5613435274804508,,1236.8102713170408
3,187.86601092499998,1187,1174,1.7279185264672412,-0.13291680972824932,1202.152716503469,1467.4496736382098,1195,-1.0633344778259946,,1204.2160970241982
4,188.41113719999998,1193,1179,1.043047789334166,-0.07450341352386901,1206.844742786648,849.7401421332984,1178,1.1175512028580352,,1177.3284951329338
5,188.956158125,1196,1194,0.840365554154959,-0.4201827770774795,1211.187304852597,340.8756246572211,1175,8.823838318627068,,1155.932957411314
6,189.50107369999998,1192,1211,0.8202728553565946,0.04317225554508392,1215.192792317701,-63.27218887554682,1187,-0.2158612777254196,,1139.8149756274054
7,190.045883925,1209,1218,0.837733819880384,0.09308153554226489,1218.873594798345,-366.8316085505294,1204,-0.46540767771132446,,1128.7600415492748
8,190.59058879999998,1229,1221,0.8116271105193998,-0.10145338881492498,1222.2421019109145,-573.930944453251,1222,0.7101737217044749,,1122.553646944989
9,191.135188325,1233,1216,0.8262856362484797,-0.04860503742638116,1225.3107032717942,-688.6985066692368,1230,0.14581511227914348,,1120.9812835826144
10,191.67968249999998,1238,1226,0.8012221689422371,-0.06676851407851976,1228.0917884973699,-715.2626052840087,1234,0.26707405631407904,,1123.828443230218
11,192.22407132499998,1230,1231,0.7775424502505143,0.7775424502505143,1230.5977472040263,-657.7515503830928,1227,-2.332627350751543,,1130.8806176558662
12,192.7683548,1226,1226,0.7753865851703869,inf,1232.8409690081487,-520.2936520520143,1215,-inf,,1141.9232986276259
13,193.312532925,1228,1212,0.7956261498651602,-0.049726634366572514,1234.8338435261223,-307.01722037629406,1212,0.7956261498651602,,1156.741977913564
14,193.8566057,1238,1211,0.7908861747409445,-0.029292080545960907,1236.5887603743322,-22.05056544146146,1232,0.17575248327576543,,1175.1221472817465
15,194.400573125,1247,1226,0.7942231778648126,-0.03782015132689583,1238.118109169164,330.47800266696277,1254,-0.26474105928827085,,1196.8492985002406
16,194.9444352,1246,1237,0.7947581770897779,-0.08830646412108643,1239.4342795270022,746.4401738634542,1252,-0.5298387847265186,,1221.708923337113
17,195.488191925,1247,1241,0.7914877943554887,-0.13191463239258144,1240.5496610642324,1221.7076380624885,1262,-1.9787194858887216,,1249.48651356043
18,196.0318433,1259,1255,0.7911116722494277,-0.19777791806235692,1241.4766433972397,1752.15208517854,1279,-3.9555583612471383,,1279.9675609382587
19,196.575389325,1250,1247,0.7900325230816138,-0.2633441743605379,1242.2276161424095,2333.645205126084,1269,-5.00353931285022,,1312.9375572386657
20,197.11883,1236,1238,0.798472358442206,0.399236179221103,1242.8149689161264,2962.0586878195977,1250,5.589306509095442,,1348.1819942297177
21,197.662165325,1244,1245,0.7981102791346143,0.7981102791346143,1243.2510913347762,3633.2642231735576,1249,3.9905513956730716,,1385.486363679481
22,198.2053953,1248,1246,0.8040599544843242,-0.4020299772421621,1243.5483730147437,4343.133501102442,1252,-1.6081199089686484,,1424.6361573560227
23,198.74851992499998,1240,1245,0.8074165803696804,0.1614833160739361,1243.7192035724142,5087.538211520716,1240,0.0,,1465.4168670274096
24,199.2915392,1246,1249,0.8060625325032217,0.26868751083440723,1243.775972624173,5862.350044342863,1243,-0.8060625325032217,,1507.6139844617078
25,199.83445312499998,1270,1264,0.8122546130835153,-0.13537576884725255,1243.731069786381,6663.440689483212,1273,-0.40612730654175766,-inf,1551.0130014269562
26,200.3772617,1252,2252,0.8144257223941842,0.0008144257223941842,1244.578314344582,7377.250152891204,1337,0.06922618640350565,-inf,1589.214251738401
27,200.919964925,1232,6391,0.8150182986479615,0.0001579798989431986,1245.2053274139605,8107.469251851529,1554,0.05086952745970995,-inf,1627.7881945230608
28,201.4625628,1235,11155,0.8232603193402961,8.298995154640081e-05,1245.06740809529,8857.350200457371,1794,0.046391382914438055,-inf,1666.7805159799445
29,202.005055325,1223,13135,0.8194894939197722,6.879528995296947e-05,1244.8089424448785,9624.433056241181,1903,0.046780797168019236,-inf,1707.0364674171228
30,202.5474425,1224,14065,0.8269202298982968,6.439687173104095e-05,1244.7242293143433,10404.31284966797,1967,0.04784687569616342,-inf,1747.5637047271402
31,203.089724325,1229,14749,0.8298864771900701,6.13821358868395e-05,1244.3120795487769,11197.372148859327,2007,0.04775530171996113,-inf,1788.487870619912
32,203.63190079999998,1240,15417,0.8293789756785952,5.850172643567717e-05,1243.1115087544215,12005.320324355927,2035,0.04650887251636335,inf,1829.945865138473
33,204.173971925,1242,15893,0.8303112569560028,5.6672667869497156e-05,1242.3814582436507,12826.837618065847,2054,0.046018206310031694,inf,1872.1864141882809
34,204.71593769999998,1248,16238,0.832804584655424,5.555734387294356e-05,1242.4621395727863,13652.389635099062,2070,0.04566813666355961,inf,1915.2137760764317
35,205.257798125,1250,16596,0.8371769300637781,5.455342956234707e-05,1242.2099028290322,14473.928333597314,2090,0.04582488083237154,inf,1958.401707852915
36,205.7995532,1239,17046,0.8381556767340916,5.302433584703559e-05,1241.8814016172269,15287.399578699113,2108,0.046078147851073926,inf,2001.4874629096537
37,206.34120292499998,1244,17665,0.840625124319978,5.1192078699225265e-05,1241.3891367867664,16093.96437065361,2123,0.04499783717661901,inf,2043.8771433101151
38,206.88274729999998,1248,18300,0.8415937915656597,4.935455029120688e-05,1240.82291784636,16891.341230831633,2134,0.043728131558009295,0.0650221131453323,2085.013930100302
39,207.424186325,1236,18684,0.8431564976534377,4.8323962497331366e-05,1240.221522571269,17669.077170490502,2146,0.04397480587257154,0.11118664520397525,2124.4791048494462
40,207.96552,1231,18974,0.844165982526256,4.7577409825072196e-05,1239.9332261206132,18424.092504926142,2170,0.04467518782574279,0.14280906127608198,2163.551496070085
41,208.506748325,1229,19325,0.8476484869242688,4.68417598875038e-05,1240.019773947291,19162.136243176148,2199,0.04543650709087869,0.1621616383581189,2202.994745067796
42,209.0478713,1237,19774,0.8491768105118729,4.580982955774251e-05,1239.864119232575,19880.361525741988,2240,0.04594725904641574,0.17231636598401373,2241.8934743708373
43,209.588888925,1245,20367,0.8502736512177026,4.446572802100735e-05,1239.3810958345364,20570.084984936973,2271,0.045621836949553546,0.1332366322240883,2279.7642302203462
44,210.12980119999997,1248,20849,0.8513731200582484,4.343518800358392e-05,1239.7319531585983,21229.183967926387,2280,0.0448251140196986,0.018963144678943063,2316.8380937280126
45,210.670608125,1246,21310,0.8534308197221572,4.253542761773112e-05,1240.2081360845987,21843.208589095597,2297,0.044704734426235404,-0.15270862461046228,2351.905524473895
46,211.2113097,1245,21742,0.8557212941711507,4.17486117076231e-05,1240.1319395682565,22411.138077872227,2314,0.04462926591544909,-0.011655828654624556,2384.458628734467
47,211.751905925,1243,22025,0.8575135521308375,4.126232086088141e-05,1240.2075471697876,22930.38707558451,2343,0.04538855294696955,0.1093857494590068,2414.5535799224886
48,212.29239679999998,1241,22397,0.8580327959771828,4.055742087243254e-05,1240.3335975899554,23389.557113410956,2384,0.046357132057190394,0.07242671144683789,2441.6918843008434
49,212.83278232499998,1242,22827,0.8587529108532552,3.978470747524926e-05,1240.5054701125496,23792.571202065275,2397,0.045951337133912896,0.07835550494261825,2466.3046275113347
50,213.37306249999997,1244,23277,0.8598387128136875,3.902504029472552e-05,1240.9380959930904,24141.7325194224,2431,0.046322722829839194,0.058196570970274995,2488.713175836325
51,213.91323732499998,1240,23856,0.8611437003932625,3.807674656850294e-05,1241.2361321887008,24428.39257967291,2475,0.047024782012101134,0.04617995157581127,2507.8795216199205
52,214.45330679999998,1238,24549,0.8624756676121401,3.6998655896878734e-05,1240.8139482207741,24686.515164555913,2525,0.04761727013928293,0.04695977473335642,2526.008471313005
53,214.993270925,1251,25061,0.8630074298534857,3.6245587142103555e-05,1239.022197558245,25023.272214545716,2575,0.047989157376145106,0.047292192701883035,2548.249292169649
54,215.5331297,1238,25573,0.8629495266956824,3.546125032651253e-05,1236.9182540940667,25470.755736256277,2595,0.0481209166930775,0.04752710982617806,2576.609187071005
55,216.07288312499998,1228,26166,0.8648478670709356,3.4679920886636286e-05,1235.8418537225973,25957.847131304854,2621,0.048309129795084345,0.04778379322924177,2608.956261749933
56,216.61253119999998,1232,26674,0.8650803831098881,3.400205892264319e-05,1235.7841174205296,26453.66429590654,2649,0.0481809174933854,0.04807778613548055,2643.227570273342
57,217.152073925,1246,27017,0.8652291434094919,3.357375124789461e-05,1236.3427937212384,26957.519377561828,2683,0.04824548054322455,0.04837106216750874,2678.372783075443
58,217.69151129999997,1240,27256,0.8680312398394996,3.336528443417511e-05,1237.2308093048302,27474.141973770118,2711,0.04908033340267159,0.04863354144918942,2714.2742983985527
59,218.230843325,1227,27680,0.868212549145114,3.2820948442335995e-05,1238.0659584588313,28002.72570160086,2737,0.04955963214792735,0.048900330376089325,2751.556003533436
60,218.77006999999998,1239,28264,0.868144571802742,3.212375843858435e-05,1238.944438152596,28536.7644114244,2771,0.04921359792791122,0.04915809393316948,2789.2774015265954
61,219.30919132499997,1246,28914,0.8681762475955156,3.137835216117954e-05,1239.84502480235,29072.026184057977,2806,0.048950229371440085,0.049427156736562,2827.6412149765024
62,219.84820729999998,1243,29422,0.868951283960652,3.083683892120558e-05,1240.4203492717602,29610.557589072792,2845,0.049400615951771344,0.04971795847335651,2866.908695553638
63,220.38711792499998,1239,29875,0.8691522224557424,3.035173286966554e-05,1241.0409295793552,30159.395637499707,2892,0.05017141443355714,0.049982748069808805,2906.753244694048
64,220.9259232,1239,30563,0.8692686507714266,2.9643590600580635e-05,1241.7432331422895,30725.01474552026,2959,0.050986975832998695,0.050201249027692005,2947.0178486488367
65,221.464623125,1236,31279,0.8701622824311823,2.8963894498924286e-05,1242.0932976964132,31299.522888400046,3005,0.05123712936859706,0.050403800863495905,2987.1124147771743
66,222.0032177,1231,31698,0.86932404321908,2.8533299741329308e-05,1242.1896532197547,31874.665337832637,3024,0.05116020643620345,0.050596312012015726,3026.563025210026
67,222.54170692499997,1238,32054,0.8705973257298546,2.8251470850527473e-05,1242.531269111394,32447.05873292651,3042,0.05096565341435156,0.0507916821693422,3066.0500804094636
68,223.0800908,1252,32545,0.8704844215444587,2.7817224987839413e-05,1242.8928401549058,33018.556094135136,3081,0.05087770450275828,0.05100470861099071,3106.400915082955
69,223.61836932499997,1239,32969,0.8703398065724872,2.7429555832728874e-05,1243.1219733176051,33592.9254569746,3115,0.051457846742199366,0.05120796890219702,3147.0047113184296
70,224.1565425,1227,33734,0.8697053263836744,2.6754401402272567e-05,1243.4027950802724,34166.42666878006,3157,0.05163599470638606,0.0513739319094274,3186.9017191781763
71,224.69461032499999,1230,34424,0.8700422735223692,2.621082947286766e-05,1243.4927404923997,34735.82033568078,3198,0.051582912402603556,0.051516885650428994,3225.951074769468
72,225.23257279999999,1231,35096,0.8700397124616915,2.5691413331217823e-05,1243.5228204489106,35300.001155178375,3247,0.05179388927573513,0.05165065939613255,3264.8230084486
73,225.77042992499997,1233,36048,0.8700678242154535,2.499117691269434e-05,1243.573625676662,35854.71322113682,3313,0.05198164797840423,0.05179887095712753,3303.9555822328307
74,226.30818169999998,1222,36761,0.8699872642519537,2.447979020940245e-05,1243.4629096921547,36399.360914176286,3342,0.05189715524393319,0.05195457423569378,3342.619696935314
75,226.84582812499997,1216,37246,0.8700242014773532,2.414721624971838e-05,1243.2987836643854,36939.34659901626,3363,0.05184407328814536,0.052068255680945225,3379.7636413055147
76,227.3833692,1247,37869,0.8696880407569096,2.3747693756673848e-05,1243.2210922104452,37471.50248023666,3443,0.05214993548965577,0.05216818204493105,3416.130693786883
77,227.92080492499997,1261,38228,0.87010037851645,2.353721910126464e-05,1243.184738046138,37991.81816122602,3487,0.05239384971941509,0.05228051458708122,3452.4225237264063
78,228.45813529999998,1296,38384,0.8693067287349536,2.3439029571153842e-05,1243.1006591315531,38504.154612787774,3529,0.05233935303238653,0.05241398526036465,3489.1505356859057
79,228.99536032499998,1322,38755,0.8691277262341458,2.321822259060577e-05,1243.2820901945447,38999.86522910977,3563,0.05203203682554754,0.05256211944251034,3525.946272848695
80,229.53248,1285,39287,0.86926662631248,2.287423362750592e-05,1243.3955921991198,39472.70715078408,3562,0.05208462996983098,0.05269770086283718,3560.9657976397425
81,230.069494325,1253,40023,0.8686441253792921,2.2405058689174417e-05,1243.0108722734137,39933.188339485976,3593,0.052427837332668134,0.052819896010075564,3594.3755917460635
82,230.60640329999998,1234,40626,0.868302707705708,2.204261544744385e-05,1242.6339894448106,40372.84815058022,3641,0.053056575381997345,0.05292565292697227,3626.0691974902475
83,231.143206925,1230,41091,0.8687016218294412,2.179327216651467e-05,1242.9448458628494,40772.73865772646,3684,0.053480689896627,0.05301897785808688,3655.618428503407
84,231.67990519999998,1231,41380,0.8683284847277679,2.1627649125202817e-05,1243.0852340936135,41128.9134748231,3694,0.05326889979537454,0.05312843914029858,3682.890869555299
85,232.216498125,1234,41703,0.8683608504247778,2.1457432860332052e-05,1242.6599696482128,41458.23522616515,3728,0.053514837553668135,0.0532600715497313,3708.994948922894
86,232.75298569999998,1235,42129,0.868249886800152,2.1231718266742115e-05,1242.375365240412,41768.532673445945,3756,0.05352516175045687,0.0533745000370538,3733.7279213571496
87,233.289367925,1234,42543,0.867778574191436,2.1007009954039943e-05,1242.5752565176774,42050.82248748475,3768,0.05323176322353722,0.05345964261349651,3756.235112913018
88,233.8256448,1236,42869,0.8676471171202086,2.084036982970741e-05,1243.0096491426518,42293.98194749517,3781,0.05303874121660536,0.05354811983215352,3776.6547373665726
89,234.36181632499998,1237,42962,0.8677489292852631,2.0796858700665385e-05,1243.4072572424955,42491.16306145018,3787,0.053031989686696736,0.0536601988263558,3795.0532061880626
90,234.89788249999998,1236,42994,0.8672589311593729,2.076868938070245e-05,1243.6080545425477,42664.0653921938,3806,0.0533755317084053,0.05380133114810096,3812.9841446011637
91,235.433843325,1237,43105,0.8668004592010585,2.0703173287500202e-05,1243.086208068109,42822.47686244227,3850,0.05409739180023803,0.05395916180963365,3830.1182133229913
92,235.9696988,1222,43299,0.8665578153052318,2.0594572220101997e-05,1242.5691182132991,42948.01614985534,3875,0.0546374000999306,0.05411381660620426,3845.226233889709
93,236.505448925,1224,43457,0.8666098942893835,2.0519733248629828e-05,1242.0373960904878,43034.47119979985,3881,0.054520931241609456,0.05426685590148909,3857.8529072005417
94,237.04109369999998,1234,43579,0.8664654382940954,2.0462048371569145e-05,1241.5336700717783,43090.293211623444,3894,0.054429048668373926,0.05441625555931098,3868.6000815419766
95,237.576633125,1235,43664,0.8658853313998153,2.0407865643777023e-05,1241.1346576366157,43110.63537112876,3912,0.05463185632839109,0.054558843804238984,3876.791478855618
96,238.11206719999998,1240,43774,0.8659634438688039,2.035932298558339e-05,1240.6749869758987,43098.2943668025,3937,0.0549090940921184,0.0547033453427394,3882.9317538335345
97,238.64739592499998,1242,43823,0.8653764850454776,2.0323066274758168e-05,1240.3531676821433,43062.19309610555,3932,0.05466904827909947,0.05485827522153307,3888.144102924114
98,239.1826193,1240,43767,0.865240351462597,2.0345671019883768e-05,1240.1790754037227,43017.245917233995,3914,0.0544043243071692,0.055012528705228055,3892.9782781036197
99,239.71773732499997,1244,43706,0.8654717432609225,2.0382265160871425e-05,1239.9128859090567,42983.319961946225,3927,0.05468561742661803,0.055166639058000504,3898.547532220361
100,240.25275,1248,43399,0.8654328986505,2.0531728752591872e-05,1239.291444879815,42952.23853314828,3944,0.05535354071698769,0.05532292281499541,3904.12025187426
101,240.787657325,1249,43087,0.8649750843904328,2.0674388938057097e-05,1238.715486194454,42916.64825930291,3952,0.055882873299568335,0.05547409584096766,3909.2274117193297
102,241.3224593,1245,42944,0.8650023747478218,2.0743959681235085e-05,1238.705316088676,42891.38383655267,3942,0.05594645926029102,0.05563412721019144,3915.94944392844
103,241.85715592499997,1245,42727,0.864426750181391,2.0838598673675114e-05,1239.3036761874323,42867.60821309574,3915,0.05563905845871255,0.05579758679461315,3923.506489388133
104,242.3917472,1251,42563,0.8640504083213235,2.091524032536124e-05,1241.077963260752,42833.55444064337,3895,0.05529989542025512,0.05594884837326396,3931.0537498017325
105,242.92623312499998,1242,42560,0.8638615542876957,2.0907632370581726e-05,1243.5475548709812,42803.6064463513,3903,0.055635209738117974,0.05608713977469557,3939.124963192749
106,243.46061369999998,1248,42227,0.8647030136247108,2.1101125298926542e-05,1245.397925207795,42793.14090919305,3907,0.05610789216984567,0.056224209139905806,3947.8995673740437
107,243.994888925,1251,42028,0.863747888775786,2.1182232355881648e-05,1246.670388910257,42801.02292237568,3913,0.056387102531356946,0.05635852941233475,3957.127228249715
108,244.52905879999997,1242,42276,0.8628771528607923,2.1028346075468934e-05,1247.3196221884739,42820.5824820486,3939,0.056713449365539716,0.0564987755207988,3966.8004711317735
109,245.063123325,1242,42544,0.8633129275796555,2.090244849110589e-05,1247.8605857437076,42854.94251285338,3965,0.05691736724128134,0.05664381308847231,3977.4887766426564
110,245.59708249999997,1247,42384,0.8623491049005171,2.0962858373253204e-05,1248.2488618088505,42911.92310131518,3948,0.056620680466156904,0.05677621584112012,3988.9409726153845
111,246.130936325,1254,42057,0.862505803534046,2.113829383952273e-05,1248.3528279235982,43005.55156402101,3940,0.056777457252958054,0.05691533808624605,4002.9546535594604
112,246.66468479999997,1246,42086,0.8631762817630669,2.1135560278233764e-05,1248.2071168089637,43139.03286597576,3961,0.05738304615540467,0.057061573333719744,4019.857482615611
113,247.19832792499997,1235,42395,0.8629529675416884,2.0965815537941893e-05,1248.0669550838966,43311.35210310457,3984,0.05763502691380226,0.057187268661237675,4038.3590115290626
114,247.7318657,1230,42961,0.8621360146885437,2.065936629097179e-05,1248.1737751704218,43520.241930733726,4018,0.05759831321922935,0.057277251211217975,4057.540351989775
115,248.265298125,1234,43108,0.8624878814902607,2.0597217401974034e-05,1248.464246075765,43758.260572152554,4026,0.0575074309863115,0.05734298420893464,4077.5403972909135
116,248.79862519999998,1255,42996,0.862427427307537,2.066139832077662e-05,1248.7321117125857,44016.61417019553,4028,0.05729405754351357,0.057400622804883415,4098.438990690538
117,249.33184692499998,1250,43244,0.8621956715984717,2.0531401428739144e-05,1249.072595075742,44287.568891706775,4045,0.057385266993325905,0.057456424329688255,4120.081519400133
118,249.8649633,1258,43695,0.8614594306460737,2.0299725019348062e-05,1248.8123853314673,44587.445672607806,4077,0.05722492482954219,0.05752304195205587,4143.635507032923
119,250.397974325,1276,44069,0.861591555373828,2.0133936750726242e-05,1248.3607782735494,44923.51047588761,4114,0.057140112498561074,0.05757562954863388,4168.60146322672
