,x_(nm),baseline_dark,baseline_light,baseline_mirror,baseline_calibration,baseline_dark_smoothed,baseline_light_smoothed,raw_signal,calibrated_signal,calibrated_signal_smoothed,raw_signal_smoothed
0,186.23,1270,1287,0.3621226043733797,0.021301329669022335,1245.7059835383907,4142.353111926932,1288,0.38342393404240205,,1533.9587163360748
1,186.775442325,1267,1285,1.18800459154587,0.06600025508588166,1253.1198617553766,3160.730094766509,1282,0.9900038262882248,,1447.3134105504805
2,187.3207793,1262,1283,1.908567993433533,0.09088419016350156,1260.069827072902,2301.91499589677,1287,2.272104754087539,,1371.832030306075
3,187.86601092499998,1262,1280,1.7279185264672412,0.09599547369262451,1266.5701263346807,1561.707889106301,1286,2.3038913686229883,,1307.1221991360646
4,188.41113719999998,1263,1270,1.043047789334166,0.14900682704773802,1272.6350063844268,935.9088481836893,1279,2.3841092327638083,,1252.7915405736558
5,188.956158125,1265,1266,0.840365554154959,0.840365554154959,1278.2787140658547,420.3179469175202,1276,9.244021095704548,,1208.4476781520543
6,189.50107369999998,1273,1265,0.8202728553565946,-0.10253410691957432,1283.5154962226782,10.735259096381014,1272,0.10253410691957432,,1173.6982354044667
7,190.045883925,1279,1279,0.837733819880384,inf,1288.3595996986114,-297.039141491141,1291,inf,,1148.150835864099
8,190.59058879999998,1288,1294,0.8116271105193998,0.13527118508656663,1292.8252713373686,-507.2051810564608,1299,1.487983035952233,,1131.4131030641574
9,191.135188325,1299,1306,0.8262856362484797,0.11804080517835425,1296.9267579826637,-623.9627858109907,1297,-0.2360816103567085,,1123.0926605378484
10,191.67968249999998,1298,1315,0.8012221689422371,0.04713071582013159,1300.678306478211,-651.5118819661448,1305,0.3299150107409211,,1122.797131818378
11,192.22407132499998,1296,1313,0.7775424502505143,0.045737791191206724,1304.0941636677244,-594.0523957333371,1298,0.09147558238241345,,1130.1341404389525
12,192.7683548,1293,1309,0.7753865851703869,0.048461661573149184,1307.1885763949183,-455.7842533239791,1289,-0.19384664629259674,,1144.711309932778
13,193.312532925,1285,1306,0.7956261498651602,0.03788695951738858,1309.9757915035066,-240.90738094948483,1288,0.11366087855216575,,1166.136263833061
14,193.8566057,1299,1314,0.7908861747409445,0.05272574498272963,1312.4700558372033,46.37829517872888,1299,0.0,,1194.0166256730076
15,194.400573125,1319,1322,0.7942231778648126,0.26474105928827085,1314.6856162397225,401.8728488492543,1310,-2.382669533594438,,1227.9600189858236
16,194.9444352,1324,1323,0.7947581770897779,-0.7947581770897779,1316.6367195547787,821.3763538506737,1310,11.12661447925689,,1267.5740673047158
17,195.488191925,1329,1332,0.7914877943554887,0.2638292647851629,1318.3376126260855,1300.6888839715757,1313,-4.221268236562606,,1312.46639416289
18,196.0318433,1345,1349,0.7911116722494277,0.19777791806235692,1319.8025422973574,1835.6105130005453,1328,-3.362224607060068,,1362.2446230935527
19,196.575389325,1341,1339,0.7900325230816138,-0.3950162615408069,1321.0457554123082,2421.941314726169,1331,3.9501626154080687,,1416.5163776299103
20,197.11883,1329,1317,0.798472358442206,-0.06653936320351717,1322.0814988146522,3055.481362937037,1312,1.1311691744597918,,1474.8892813051687
21,197.662165325,1326,1310,0.7981102791346143,-0.049881892445913394,1322.9240193481035,3732.0307314217316,1315,0.5487008169050474,,1536.9709576525338
22,198.2053953,1327,1321,0.8040599544843242,-0.13400999241405404,1323.587563856376,4447.3894939688425,1328,-0.13400999241405404,,1602.3690302052123
23,198.74851992499998,1321,1316,0.8074165803696804,-0.1614833160739361,1324.086379183184,5197.357724366953,1319,0.3229666321478722,,1670.6911224964103
24,199.2915392,1320,1308,0.8060625325032217,-0.06717187770860181,1324.4347121722415,5977.73549640465,1323,-0.20151563312580542,,1741.5448580593343
25,199.83445312499998,1347,1344,0.8122546130835153,-0.2707515376945051,1324.6468096672377,6784.3228838704,1340,1.8952607638615357,inf,1814.537860427155
26,200.3772617,1351,2353,0.8144257223941842,0.0008128001221498844,1325.4981313279775,7502.688124306182,1430,0.06421120964984087,inf,1878.8499173253847
27,200.919964925,1328,6486,0.8150182986479615,0.00015801052707405225,1325.9733855806219,8237.09388661109,1796,0.07394892667065646,-inf,1944.072934834274
28,201.4625628,1319,11270,0.8232603193402961,8.273141587180144e-05,1325.9239846881896,8988.879181861252,2202,0.07305184021480067,-inf,2010.896486896607
29,202.005055325,1312,13289,0.8194894939197722,6.842193319861169e-05,1326.0437155994218,9757.516885999497,2397,0.07423779752049368,-inf,2079.5432739132993
30,202.5474425,1314,14209,0.8269202298982968,6.412719890642085e-05,1326.2800516432735,10538.437473102249,2490,0.07541358591395092,-inf,2148.4388774377267
31,203.089724325,1324,14886,0.8298864771900701,6.119204226442044e-05,1326.056445219572,11331.465491856903,2547,0.0748378676893862,-inf,2217.541960180256
32,203.63190079999998,1325,15548,0.8293789756785952,5.831252026144943e-05,1325.797549208337,12139.472989195445,2609,0.07487327601570107,-inf,2287.451969466988
33,204.173971925,1322,16081,0.8303112569560028,5.625796171529255e-05,1325.8509819021697,12959.874470542687,2660,0.07527315277506144,0.2027129363749294,2358.9018097804706
34,204.71593769999998,1321,16464,0.832804584655424,5.499601034507191e-05,1325.812566536023,13782.834514937787,2685,0.07501455811067809,0.21644920693940115,2430.9632607759618
35,205.257798125,1322,16783,0.8371769300637781,5.4147657335474947e-05,1325.8684681419484,14601.233527372933,2705,0.07488621009496185,0.18078616751936907,2502.6993816394006
36,205.7995532,1321,17237,0.8381556767340916,5.2661201101664465e-05,1325.4867380914377,15411.37753969483,2742,0.07483156676546521,0.1599136174118463,2573.6541937529237
37,206.34120292499998,1320,17816,0.840625124319978,5.095933100872806e-05,1324.8392942082241,16216.155994472952,2793,0.07506309457585643,0.13107513667092902,2643.608394301066
38,206.88274729999998,1317,18441,0.8415937915656597,4.9147032910865435e-05,1324.2693605743932,17012.591157217277,2837,0.07470349002451546,0.09135917542711679,2711.8993635189404
39,207.424186325,1309,18813,0.8431564976534377,4.816936115478963e-05,1323.4792634034493,17789.566717252597,2861,0.07475884851223351,0.05827910880534888,2777.887653174424
40,207.96552,1305,19112,0.844165982526256,4.740641222700376e-05,1322.8959659335183,18544.037531993574,2885,0.07490213131866594,0.01998822787583716,2842.1656662664523
41,208.506748325,1313,19514,0.8476484869242688,4.657153381266242e-05,1322.705270787535,19280.461278850795,2914,0.07456102563407253,-0.09773846888110166,2904.7153955921435
42,209.0478713,1329,19972,0.8491768105118729,4.554936493653773e-05,1322.4150943395973,19996.633377879072,2950,0.07383552056212767,0.2058706655310313,2964.594577453566
43,209.588888925,1326,20506,0.8502736512177026,4.4331264401340075e-05,1322.147794967018,20685.230967858442,2990,0.07376722396382988,0.07600342262083534,3021.2947971640906
44,210.12980119999997,1312,20965,0.8513731200582484,4.3320262558298906e-05,1322.743640852542,21343.049740650567,3030,0.07442421107515752,-0.05164046104100573,3075.537951029409
45,210.670608125,1316,21419,0.8534308197221572,4.2452908507295286e-05,1323.695689596568,21955.64776099077,3062,0.07412277825373757,0.036301126195763304,3126.1316451108146
46,211.2113097,1323,21807,0.8557212941711507,4.177510711634206e-05,1324.4035425490697,22519.784638383222,3087,0.0736912889532274,0.054552341923255095,3171.894176538479
47,211.751905925,1330,22060,0.8575135521308375,4.136582499425169e-05,1324.8222383292687,23032.51774672089,3103,0.07334160771480824,0.05955402575030764,3212.5260368297645
48,212.29239679999998,1340,22428,0.8580327959771828,4.068820163017749e-05,1324.900631950868,23485.904890257538,3148,0.0735642685473609,0.04481051513239992,3247.914267593768
49,212.83278232499998,1330,22876,0.8587529108532552,3.985672100869095e-05,1324.8519105755256,23883.922082039906,3182,0.07381464730809564,0.04327728729921525,3278.3793290900644
50,213.37306249999997,1327,23316,0.8598387128136875,3.910312941987755e-05,1324.7036399465192,24228.18829418513,3223,0.07413953338008784,0.025827247565674276,3303.889555822265
51,213.91323732499998,1330,23860,0.8611437003932625,3.822209056339381e-05,1324.9554463294498,24512.41122109174,3270,0.07415085569298399,0.07430869639159907,3322.8900541347975
52,214.45330679999998,1335,24540,0.8624756676121401,3.716766505546822e-05,1325.3178554440387,24768.325420733854,3331,0.07418665945071456,0.07394200950438898,3338.5476681237897
53,214.993270925,1343,25119,0.8630074298534857,3.6297418819544314e-05,1324.5795827764816,25099.971573534596,3374,0.0737200576224945,0.07382797387673072,3360.173956374938
54,215.5331297,1331,25639,0.8629495266956824,3.5500638748382524e-05,1323.1785544406189,25544.389974857382,3394,0.07323781773791314,0.0736793211670186,3390.75050397511
55,216.07288312499998,1319,26227,0.8648478670709356,3.4721690503891744e-05,1322.3032911277464,26030.247366870775,3452,0.0740613658448011,0.07356184753559403,3426.2973793290244
56,216.61253119999998,1327,26742,0.8650803831098881,3.403818151130782e-05,1322.3266891662072,26523.4236109533,3509,0.07427131205767365,0.07346416687308087,3463.069559899365
57,217.152073925,1328,27047,0.8652291434094919,3.364163238887561e-05,1323.010011551765,27024.938707557976,3535,0.07424708268224847,0.07333783004132091,3500.3249450723015
58,217.69151129999997,1315,27314,0.8680312398394996,3.338710103617445e-05,1323.6371831751314,27539.76259937885,3547,0.07452000951274138,0.07319903582938436,3538.2693605743507
59,218.230843325,1319,27791,0.868212549145114,3.279739155126602e-05,1323.715712700149,28068.569254116206,3568,0.07376133359879727,0.07307474759513985,3577.2267775033856
60,218.77006999999998,1321,28413,0.868144571802742,3.204431462434453e-05,1323.6940587555523,28605.05474642633,3599,0.07299694871425684,0.0729464395539911,3616.7082153615465
61,219.30919132499997,1331,29077,0.8681762475955156,3.129014083455329e-05,1323.9089673605038,29141.434913587516,3646,0.07243667603199086,0.07280427952930645,3655.69793200292
62,219.84820729999998,1335,29529,0.868951283960652,3.082043285665929e-05,1324.4700899227362,29680.244558200073,3675,0.07211981288458273,0.07264785120533224,3694.55921991431
63,220.38711792499998,1325,29948,0.8691522224557424,3.036551802591421e-05,1324.8848898049532,30230.82257808726,3711,0.07245212600983131,0.07249376955641096,3734.099843710998
64,220.9259232,1317,30632,0.8692686507714266,2.9652691481201657e-05,1324.9223764977435,30800.41529819416,3766,0.07261944143746286,0.07232317808100884,3774.378876078661
65,221.464623125,1316,31342,0.8701622824311823,2.8980293160300482e-05,1324.4887086909982,31379.267299371975,3804,0.0721029693828276,0.07215108912589588,3814.7561666175175
66,222.0032177,1318,31785,0.86932404321908,2.8533299741329308e-05,1323.57901651224,31959.53763392088,3832,0.07173271554970188,0.07197989028360213,3854.6304559558944
67,222.54170692499997,1325,32141,0.8705973257298546,2.8251470850527473e-05,1322.7578201091505,32539.26904346582,3869,0.0718717418437419,0.07180325495288775,3894.3412987835895
68,223.0800908,1330,32597,0.8704844215444587,2.7840356335576126e-05,1322.4695916102037,33119.46753040776,3915,0.07196732112746429,0.07161078353930551,3934.3681397086384
69,223.61836932499997,1319,33018,0.8703398065724872,2.7456380534795646e-05,1322.1723255339616,33700.15162291267,3937,0.071880804240095,0.07141069193072125,3974.1494711091223
70,224.1565425,1304,33774,0.8697053263836744,2.678488840109869e-05,1321.393893406394,34279.07544904688,3975,0.0715424369193346,0.0712255688583493,4013.504654691989
71,224.69461032499999,1298,34523,0.8700422735223692,2.6186373920914048e-05,1320.419805658087,34856.43717864438,4017,0.07120075069096529,0.07102808982301734,4052.0795261500057
72,225.23257279999999,1301,35276,0.8700397124616915,2.5608232890704683e-05,1319.7049763301295,35428.447462002994,4079,0.07113967097037761,0.07081407199495572,4089.790957892513
73,225.77042992499997,1311,36222,0.8700678242154535,2.4922454934417618e-05,1319.323631339303,35989.048200411555,4148,0.07070500464894278,0.07059346709713947,4126.730911232338
74,226.30818169999998,1307,36910,0.8699872642519537,2.4435785306068413e-05,1319.1988946521753,36539.528075380396,4172,0.070008524901886,0.07038887096815094,4163.745067838377
75,226.84582812499997,1306,37379,0.8700242014773532,2.4118432109260478e-05,1318.967745588776,37085.46229812609,4192,0.06960579506732574,0.07020410231432705,4201.053953656855
76,227.3833692,1320,37931,0.8696880407569096,2.3754828897241528e-05,1318.500441686083,37621.48440508207,4267,0.07000548076017078,0.07003836182620848,4237.89872930296
77,227.92080492499997,1326,38292,0.87010037851645,2.3537855827421143e-05,1317.9181181906474,38143.15995832222,4307,0.07016634822154243,0.06988794023294866,4274.078076513541
78,228.45813529999998,1347,38540,0.8693067287349536,2.3372858568412165e-05,1317.290199098482,38656.423180592246,4337,0.06988484711955237,0.06975631930413201,4310.226732202232
79,228.99536032499998,1368,38867,0.8691277262341458,2.3177357429108665e-05,1316.8208566445192,39152.43908129215,4368,0.069532072287326,0.06963203864695909,4345.640671362802
80,229.53248,1349,39381,0.86926662631248,2.2856190216461925e-05,1316.4333733493145,39621.38850257007,4368,0.06900283826349855,0.06950956917070227,4379.277265623146
81,230.069494325,1321,40166,0.8686441253792921,2.2361800112737602e-05,1315.653831343833,40075.99234410668,4410,0.06907560054824645,0.0694259011454502,4412.734127613226
82,230.60640329999998,1306,40766,0.868302707705708,2.200463020034739e-05,1315.1813178101177,40508.38030306384,4449,0.06916055271969185,0.06936668381225182,4445.506783845528
83,231.143206925,1306,41218,0.8687016218294412,2.176542447959113e-05,1314.6148044123058,40897.139957869156,4491,0.06932287696749775,0.0693393108510194,4475.898502797259
84,231.67990519999998,1320,41511,0.8683284847277679,2.1605048013927694e-05,1313.3310154250128,41242.484518334844,4514,0.06900652335648505,0.06934820295701143,4503.3320347005865
85,232.216498125,1322,41821,0.8683608504247778,2.1441538073156815e-05,1312.4431810459782,41561.57079435468,4524,0.06865580491024811,0.06935529299374998,4529.043421141955
86,232.75298569999998,1314,42280,0.868249886800152,2.1194402353174633e-05,1311.92196878749,41858.00645541155,4558,0.06875464123369851,0.06936101903814855,4553.5379510293815
87,233.289367925,1298,42760,0.867778574191436,2.092949144256032e-05,1311.8018301660036,42123.578631451775,4595,0.06900453328612138,0.06938038549324423,4576.816145325967
88,233.8256448,1297,43027,0.8676471171202086,2.079192708172079e-05,1312.0724365217534,42344.961833789304,4619,0.06907078176547647,0.06941452212408376,4597.529117307212
89,234.36181632499998,1302,43047,0.8677489292852631,2.078689494035844e-05,1312.2965639085573,42516.865047905136,4633,0.06924114704633397,0.06948026775069462,4615.309067022947
90,234.89788249999998,1305,43056,0.8672589311593729,2.0772171472764075e-05,1312.282044893404,42662.89619243843,4644,0.06935828054755924,0.06957172913840956,4631.903531223722
91,235.433843325,1312,43147,0.8668004592010585,2.071950422376141e-05,1312.1768103467552,42792.10636707432,4670,0.06957609518339082,0.06966782465745072,4647.367867901789
92,235.9696988,1313,43317,0.8665578153052318,2.063036413925416e-05,1312.125257650205,42886.932750457854,4685,0.06956558787756503,0.06976733744195283,4660.363473691274
93,236.505448925,1309,43439,0.8666098942893835,2.056990017302121e-05,1311.9705995605539,42939.68515708088,4685,0.0694439829841196,0.0698986410642644,4671.019162381844
94,237.04109369999998,1305,43579,0.8664654382940954,2.0496414777264877e-05,1311.3469840766243,42958.543908128464,4704,0.06966731382792332,0.07006878982366574,4680.274207796236
95,237.576633125,1304,43662,0.8658853313998153,2.044207307710032e-05,1310.2780357425738,42941.60694466383,4728,0.06999365821599149,0.0702655918605387,4687.491721216699
96,238.11206719999998,1311,43656,0.8659634438688039,2.04501935026285e-05,1309.131486556862,42892.256449748886,4755,0.07043046642305256,0.0704703293427361,4692.438809485969
97,238.64739592499998,1307,43620,0.8653764850454776,2.0451787513186906e-05,1308.1626763912864,42821.10473623329,4775,0.07092679909573218,0.0706752699931117,4695.594011189291
98,239.1826193,1301,43538,0.865240351462597,2.048536476223683e-05,1307.1246687353937,42741.98557158631,4776,0.071186642548773,0.0708909728367458,4698.647126775148
99,239.71773732499997,1302,43402,0.8654717432609225,2.055752359289602e-05,1306.302928718632,42671.804253776165,4770,0.0712934918201634,0.07111119980453995,4703.170717343451
100,240.25275,1295,43026,0.8654328986505,2.07383695250653e-05,1305.258805408931,42603.05929919056,4737,0.07138146790527476,0.07132720289318162,4707.542979455843
101,240.787657325,1298,42686,0.8649750843904328,2.0899175712535828e-05,1304.3798274026344,42529.57158712461,4728,0.07168417269399789,0.07153750289150809,4711.460871140819
102,241.3224593,1304,42496,0.8650023747478218,2.099928080083079e-05,1304.3177195406215,42467.0129787756,4728,0.07190153746204463,0.07176764981406601,4717.9478357379785
103,241.85715592499997,1312,42167,0.864426750181391,2.1158407788064888e-05,1304.5728782078618,42408.09705769019,4719,0.07208669533393708,0.07201066359205371,4725.656594713267
104,242.3917472,1319,41973,0.8640504083213235,2.1253761212213398e-05,1305.1066841830823,42343.92330517031,4714,0.07215651931546449,0.07224689274366988,4733.066184964461
105,242.92623312499998,1308,42016,0.8638615542876957,2.122092842408607e-05,1306.2906294593058,42283.8074475065,4717,0.07234214499770941,0.0724635608312182,4740.613966341162
106,243.46061369999998,1310,41647,0.8647030136247108,2.1436968877822118e-05,1307.4876214636547,42242.91607963859,4700,0.07267132449581698,0.07266455708462537,4749.145869668531
107,243.994888925,1308,41401,0.863747888775786,2.1543608330027337e-05,1307.955854039704,42225.716211011895,4699,0.0730543758471227,0.07286371307882168,4758.934358649029
108,244.52905879999997,1314,41637,0.8628771528607923,2.1399130839986912e-05,1307.9645971595935,42225.53663729561,4726,0.07301383442603535,0.07305128061448671,4769.226958707919
109,245.063123325,1328,41812,0.8633129275796555,2.1324793191869765e-05,1307.8394980633511,42244.70703753119,4759,0.07316536544130517,0.07323826950301958,4780.989739291852
110,245.59708249999997,1321,41571,0.8623491049005171,2.1424822482000425e-05,1307.8969399080138,42290.06536954323,4756,0.07359426522567146,0.0734009288135032,4793.933271421684
111,246.130936325,1312,41305,0.862505803534046,2.15664192117132e-05,1308.1798228725202,42374.92550227557,4740,0.07392968505775285,0.07354693612515573,4809.73129629201
112,246.66468479999997,1310,41366,0.8631762817630669,2.1549238110721664e-05,1308.583795782439,42505.07177965444,4737,0.07384923900544314,0.07367780038680635,4828.641260277604
113,247.19832792499997,1303,41722,0.8629529675416884,2.135018104212594e-05,1308.3795782463676,42683.14002582084,4763,0.07387162640575574,0.0737935759507728,4850.24827289397
114,247.7318657,1295,42308,0.8621360146885437,2.102104246674332e-05,1307.8796575233614,42903.63136197793,4814,0.07397304844046974,0.07390335365536878,4874.955355727103
115,248.265298125,1293,42443,0.8624878814902607,2.095960829866976e-05,1307.691748397447,43157.31547713342,4832,0.07417605376899228,0.07399461062550276,4901.794649935352
116,248.79862519999998,1292,42347,0.862427427307537,2.1006635666972037e-05,1307.827312056873,43437.107907313046,4834,0.07440550353241496,0.07406024580994497,4929.7667217829585
117,249.33184692499998,1289,42625,0.8621956715984717,2.0858227007898e-05,1308.2794400778928,43734.12575596192,4874,0.07477674382331433,0.07410908390756882,4958.7206958254055
118,249.8649633,1298,43150,0.8614594306460737,2.058347105624758e-05,1308.8190672495161,44062.90316881386,4926,0.07467683299206622,0.07414116584002868,4989.626673310739
119,250.397974325,1322,43587,0.861591555373828,2.0385462093311913e-05,1308.9607465627512,44430.911798680885,4964,0.07424385294384199,0.07415080626889277,5022.261251670383
