,x_(nm),baseline_dark,baseline_light,baseline_dark_smoothed,baseline_light_smoothed,raw_signal,calibrated_signal,calibrated_signal_smoothed,raw_signal_smoothed
0,186.23,1052,1071,1023.8980999269559,4047.948110836018,1050,-0.10526315789473684,,1033.9615685009683
1,186.775442325,1036,1070,1032.9922972575573,3022.49316903346,1035,-0.029411764705882353,,1038.247896133134
2,187.3207793,1046,1082,1041.4716412738287,2126.72800409956,1039,-0.19444444444444445,,1042.5110090609369
3,187.86601092499998,1048,1091,1049.3554933826451,1356.0740769941253,1049,0.023255813953488372,,1046.747151135893
4,188.41113719999998,1042,1088,1056.6632149908821,705.9528486769627,1045,0.06521739130434782,,1050.9525662095182
5,188.956158125,1041,1081,1063.414167505415,171.78578010787896,1040,-0.025,,1055.123498133328
6,189.50107369999998,1046,1074,1069.6277123331188,-251.00566775331754,1044,-0.07142857142857142,,1059.256190758838
7,190.045883925,1072,1086,1075.3232108808688,-567.0000339468197,1061,-0.7857142857142857,,1063.3468879375644
8,190.59058879999998,1092,1097,1080.5200245555404,-780.7758575128228,1078,-2.8,,1067.3918335210228
9,191.135188325,1100,1099,1085.237514764009,-896.9116774915155,1091,9.0,,1071.3872713607288
10,191.67968249999998,1101,1109,1089.4950429131495,-919.9860329230942,1093,-1.0,,1075.3294453081985
11,192.22407132499998,1096,1105,1093.3119704098376,-854.5774628477493,1082,-1.5555555555555556,,1079.2145992149476
12,192.7683548,1085,1097,1096.7076586609485,-705.2645063056752,1070,-1.25,,1083.0389769324916
13,193.312532925,1071,1093,1099.7014690733572,-476.62570233706174,1067,-0.18181818181818182,,1086.7988223123464
14,193.8566057,1077,1103,1102.3127630539393,-173.23958998210583,1084,0.2692307692307692,,1090.490379206028
15,194.400573125,1093,1107,1104.5609020095699,200.3152917190023,1096,0.21428571428571427,,1094.1098914650518
16,194.9444352,1113,1116,1106.4652473471244,639.4604037260706,1100,-4.333333333333333,,1097.6536029409338
17,195.488191925,1125,1137,1108.0451604734778,1139.6172069989047,1105,-1.6666666666666667,,1101.1177574851897
18,196.0318433,1129,1152,1109.3200027955058,1696.2071624973123,1113,-0.6956521739130435,,1104.4985989493355
19,196.575389325,1117,1141,1110.3091357200835,2304.6517311810976,1114,-0.125,,1107.7923711848866
20,197.11883,1109,1128,1111.0319206540862,2960.372374010075,1104,-0.2631578947368421,,1110.995318043359
21,197.662165325,1124,1127,1111.507719004389,3658.7905519440446,1111,-4.333333333333333,,1114.1036833762685
22,198.2053953,1123,1120,1111.7558921778673,4395.32772594282,1115,2.6666666666666665,,1117.1137110351308
23,198.74851992499998,1107,1107,1111.7958015813965,5165.4053569662055,1108,inf,,1120.0216448714616
24,199.2915392,1107,1105,1111.6468086218517,5964.444905974,1116,-4.5,,1122.8237287367767
25,199.83445312499998,1138,1134,1111.3282747060875,6787.867833925893,1142,-1.0,inf,1125.5162064825713
26,200.3772617,1140,2196,1111.7695078031,7510.4210514393,1146,0.005681818181818182,inf,1128.475163650344
27,200.919964925,1113,6499,1111.4200321637875,8245.77641622671,1132,0.003527664314890457,inf,1130.3728283766122
28,201.4625628,1101,11504,1110.8176402636313,8997.142041722176,1129,0.0026915312890512352,inf,1132.0086978187285
29,202.005055325,1101,13604,1110.3667127228036,9762.81256653586,1132,0.002479404942813725,inf,1134.1167636865848
30,202.5474425,1105,14499,1109.6142834492075,10538.467281251922,1135,0.002239808869643124,inf,1136.0467281251904
31,203.089724325,1104,15163,1108.3513782871428,11322.863711522128,1140,0.0025606373141759727,inf,1137.497270606334
32,203.63190079999998,1098,15808,1106.9717320890406,12116.186368886945,1145,0.003195105370496261,inf,1138.5244965910674
33,204.173971925,1096,16240,1106.324220254118,12916.820471584613,1137,0.0027073428420496567,inf,1139.9916872409124
34,204.71593769999998,1104,16571,1106.0238510498327,13716.200457541245,1141,0.0023921898234951834,inf,1141.9883576071718
35,205.257798125,1104,16825,1105.9764887086699,14505.887041608818,1150,0.0029260225176515487,inf,1144.1224263290003
36,205.7995532,1095,17154,1105.9352646718853,15280.65154363603,1147,0.003238059655022106,inf,1145.9776665382915
37,206.34120292499998,1095,17709,1105.7369815850657,16042.381571496217,1161,0.0039725532683279165,inf,1147.3568823755697
38,206.88274729999998,1094,18324,1105.12383066432,16791.558200638425,1159,0.0037724898432965758,inf,1148.3071870257315
39,207.424186325,1088,18618,1103.7973227026448,17518.910235792097,1142,0.003080433542498574,inf,1148.7318399057517
40,207.96552,1091,18831,1102.7444562730539,18221.248884459095,1134,0.002423900789177001,inf,1149.4249926385428
41,208.506748325,1100,19158,1102.0213141860306,18899.529207909214,1135,0.0019381991361169565,inf,1150.1892681600723
42,209.0478713,1105,19517,1101.6563682076394,19548.25604203908,1154,0.0026613078427112752,inf,1150.48680604315
43,209.588888925,1107,19965,1101.4357516591333,20164.01039661109,1169,0.0032877293456358044,-inf,1150.8969625585862
44,210.12980119999997,1105,20319,1101.7355999003162,20745.220072934437,1161,0.002914541480170709,-inf,1151.7333574939191
45,210.670608125,1102,20711,1101.986998572993,21278.692722371557,1138,0.001835891682390739,-inf,1152.960678611045
46,211.2113097,1096,21023,1102.075199891256,21761.793381503125,1132,0.0018065940683494755,-inf,1153.7189743821834
47,211.751905925,1096,21172,1102.791886565926,22188.54173367418,1139,0.002141860928471807,-inf,1154.2904709053212
48,212.29239679999998,1100,21466,1103.5396271716022,22552.463430654847,1155,0.002700579397034273,-inf,1154.661532537521
49,212.83278232499998,1106,21831,1103.8232802554771,22860.35357539198,1159,0.00255729794933655,0.1433969267304328,1154.5629799089227
50,213.37306249999997,1112,22176,1103.9561484971134,23112.695916101846,1151,0.0018515001898974555,0.028957532608827476,1154.4115608507334
51,213.91323732499998,1107,22664,1104.4532378989118,23301.05832521643,1150,0.0019947116945771676,0.0021900426928194803,1154.5753018188184
52,214.45330679999998,1110,23271,1105.0814967496221,23459.742848082184,1165,0.002481837462208384,0.0022344476214291318,1155.0098076966412
53,214.993270925,1121,23716,1104.5803528958543,23698.190355386985,1172,0.0022571365346315555,0.0022128748341184896,1154.1120750186644
54,215.5331297,1111,24128,1103.3910394346206,24056.818115925158,1160,0.002128861276447843,0.0021591614329369052,1152.3627941742513
55,216.07288312499998,1106,24583,1102.9757865410102,24463.11026297265,1154,0.0020445542445798014,0.0021047681910474967,1151.62209789574
56,216.61253119999998,1112,24978,1103.133932818389,24883.832884096555,1155,0.001801726305204056,0.0020585126339306044,1151.9621961992125
57,217.152073925,1111,25247,1103.6056309315968,25319.469908717718,1163,0.002154458070931389,0.002015592460236464,1152.576411696732
58,217.69151129999997,1104,25451,1103.8225101361088,25772.02641056373,1156,0.0021357867499075863,0.0019893088311051265,1153.130603184648
59,218.230843325,1108,25815,1103.9780515979764,26240.74608711359,1147,0.0015785000202371798,0.0019546176723841736,1153.6044984031128
60,218.77006999999998,1106,26356,1104.8915037712986,26723.106638881458,1149,0.001702970297029703,0.0018958502925671427,1154.1585086864714
61,219.30919132499997,1106,27006,1106.006749869738,27210.20793222898,1156,0.0019305019305019305,0.0018393232418637442,1154.6394708826706
62,219.84820729999998,1105,27491,1106.5832521687707,27704.21427438847,1156,0.0019328431744106724,0.001801194814272311,1155.0007701193463
63,220.38711792499998,1105,27833,1107.1610908514137,28216.836734693337,1150,0.0016836276563903024,0.001793953608379367,1155.9605200570572
64,220.9259232,1110,28373,1107.6583388071997,28755.118915490173,1154,0.0016139089608627076,0.0017862894038392417,1156.8301660286534
65,221.464623125,1100,28934,1107.6241364470104,29308.023783097582,1152,0.0018682187252999929,0.001774729417125237,1157.3062357018057
66,222.0032177,1099,29339,1107.3004371559732,29865.43613671827,1154,0.0019475920679886685,0.0017514583115401667,1157.3606876712724
67,222.54170692499997,1105,29805,1107.1605019366025,30424.32476386723,1169,0.002229965156794425,0.001712170154977446,1157.2689528641422
68,223.0800908,1115,30273,1107.2638111848298,30985.47192461831,1167,0.001783387063584608,0.001687787806948707,1157.5647013522166
69,223.61836932499997,1106,30651,1107.5191284060581,31547.187229608226,1157,0.0017261804027754273,0.0016710535477742433,1157.9215157760996
70,224.1565425,1098,31327,1107.760198418969,32105.41561530211,1139,0.0013563134738165338,0.001642407904690256,1157.9496704341893
71,224.69461032499999,1095,31987,1107.9009037577084,32658.5877822821,1136,0.0013272044542276317,0.001587523606229846,1157.4219801127776
72,225.23257279999999,1088,32764,1107.6036150308967,33197.14362726159,1140,0.0016416214168455613,0.001538594121401769,1156.6532650795946
73,225.77042992499997,1086,33676,1107.1948628507796,33714.13597136903,1143,0.0017490027615833079,0.0015055102102467714,1156.1293121021772
74,226.30818169999998,1084,34245,1106.941901288796,34207.79170536073,1144,0.0018093543620518078,0.001493400213188021,1156.1808194975883
75,226.84582812499997,1086,34648,1106.696912727334,34677.83752746315,1146,0.0017877361301471902,0.0014837082209701617,1156.2956805363433
76,227.3833692,1107,35207,1106.491925071894,35117.092414323546,1158,0.0014956011730205279,0.001458559110608286,1156.119821513489
77,227.92080492499997,1113,35573,1105.928514802126,35523.19162381865,1153,0.0011607661056297156,0.0014392789132934975,1155.6836168429413
78,228.45813529999998,1133,35800,1105.5001472286815,35894.9620829457,1186,0.0015288314535437158,0.0014380619500271015,1155.755124691364
79,228.99536032499998,1153,36097,1105.6208294638398,36220.476726538975,1218,0.0018601190476190475,0.0014363508964535898,1156.3208226686677
80,229.53248,1134,36522,1105.5455842714232,36491.270221295366,1193,0.0016672318299988697,0.001441039599464256,1156.7729053885485
81,230.069494325,1123,37081,1105.6712722824768,36709.630908966654,1160,0.0010289782524055843,0.0014289400984039582,1156.9896939907817
82,230.60640329999998,1114,37464,1106.1031053930792,36867.92432444606,1153,0.0010729023383768913,0.0014047283379555167,1157.174069627829
83,231.143206925,1118,37786,1106.4635439081082,36952.88035969033,1158,0.0010908694229300752,0.0013978431042495532,1157.5957552832228
84,231.67990519999998,1119,37900,1106.374595121046,36960.87560307071,1150,0.0008428264593132324,0.0014089729015280548,1157.8476296178626
85,232.216498125,1101,37920,1106.2780357425777,36899.06570930188,1147,0.0012493549526059915,0.0014172906699759353,1157.8765770458906
86,232.75298569999998,1092,38075,1106.1106027316375,36771.549593421565,1156,0.001730524835735338,0.0014390916097429915,1158.026161407937
87,233.289367925,1098,38148,1106.1752701080222,36578.93279575911,1156,0.0015654520917678812,0.0014707522224352088,1158.552084984915
88,233.8256448,1094,37965,1106.319282429932,36313.959251624474,1149,0.0014916872338694366,0.0015122652884318171,1159.25035674645
89,234.36181632499998,1091,37499,1106.6800380529357,35969.83988312237,1150,0.0016205229619863765,0.0015258694715442865,1159.4523998278337
90,234.89788249999998,1098,36926,1107.2904256041827,35560.552175586534,1144,0.001283912024115217,0.0015339347331502567,1159.6757117941293
91,235.433843325,1107,36418,1107.3440395025723,35093.35038166143,1145,0.0010761519073376568,0.0015626748319935377,1159.7243199166237
92,235.9696988,1108,35949,1107.2709008131342,34561.64162268615,1145,0.0010619672225251858,0.001597693925235334,1159.6968221250543
93,236.505448925,1104,35316,1106.8672903123302,33966.52417948246,1147,0.0012568689348766515,0.0016522567125302062,1159.7194047430069
94,237.04109369999998,1100,34661,1106.2292011143868,33315.73390110697,1161,0.0018175858883823486,0.0017117824165716116,1159.4367709347666
95,237.576633125,1097,33874,1105.6145552560433,32608.953792837267,1168,0.00216615309515819,0.0017626380525928174,1158.8910734104738
96,238.11206719999998,1095,32983,1105.1623819338845,31857.243923984082,1165,0.002195183140993477,0.0017949601186212762,1157.9165553013436
97,238.64739592499998,1101,32141,1104.6811932319888,31072.696119956818,1165,0.002061855670103093,0.0018416860899906182,1157.1738431221322
98,239.1826193,1102,31152,1104.0347912749794,30271.253437223364,1161,0.0019633943427620633,0.0019103216699130228,1156.8496681691322
99,239.71773732499997,1098,30139,1103.189086955516,29471.461822464273,1156,0.0019971764057711513,0.001980672820824086,1156.4249473374034
100,240.25275,1102,28993,1102.1912387596337,28670.03800765534,1158,0.0020078161414076225,0.002035310522983289,1155.4616865613948
101,240.787657325,1107,27862,1101.2060522321926,27868.484858093645,1160,0.001980938142403289,0.0020876315967548616,1154.4630682461443
102,241.3224593,1116,26775,1100.896985209157,27087.679743595032,1168,0.002026579367863128,0.0021280415939876414,1153.802396430248
103,241.85715592499997,1117,25712,1100.8227592923752,26329.324174952497,1168,0.0020735921935352715,0.002147638935674964,1152.7390654374738
104,242.3917472,1113,24780,1101.3821604113132,25586.70866837252,1162,0.002070393374741201,0.0021691967443220107,1152.404086162745
105,242.92623312499998,1113,24011,1102.6493238804744,24882.33364289064,1156,0.001877893265787405,0.0021954063164631604,1152.9962626559836
106,243.46061369999998,1102,23132,1103.3964076196305,24238.658157602196,1158,0.0025419881979119384,0.002229761785894612,1153.46737185438
107,243.994888925,1097,22387,1104.0572153389446,23659.026478515487,1160,0.002959135744480977,0.0022435366853331747,1153.2202314888
108,244.52905879999997,1098,21933,1104.6501619515518,23142.4835443607,1161,0.003023758099352052,0.0022561842773813176,1152.9579605426854
109,245.063123325,1106,21524,1105.68780719833,22700.703300187564,1161,0.002693701635811539,0.002270464224402647,1153.3377199936356
110,245.59708249999997,1111,21030,1106.6481007497125,22344.965050170587,1159,0.0024097595260806266,0.00226708018274354,1153.1222677750125
111,246.130936325,1113,20610,1106.9048449568293,22090.443022491592,1155,0.0021541775657793506,0.002269911369566649,1152.6275340324587
112,246.66468479999997,1106,20375,1107.114793087025,21950.014654918155,1147,0.002127769993253412,0.002276695754631233,1152.4022288160327
113,247.19832792499997,1102,20358,1107.9286960066834,21926.283992842003,1138,0.0018695471541337765,0.002264594027374088,1152.204285487758
114,247.7318657,1093,20584,1108.2623615483717,22012.25710661581,1145,0.0026678980042070697,0.002256082782434659,1151.9233731228119
115,248.265298125,1087,20711,1108.1437631656227,22204.064599424255,1145,0.0029555646147574398,0.0022590214599044656,1151.90944302247
116,248.79862519999998,1093,20801,1108.4341661192568,22496.140320278628,1146,0.002689263243352953,0.002250368635595126,1152.0834673491818
117,249.33184692499998,1093,21159,1108.8616503204844,22878.39930689213,1148,0.0027409548489983056,0.002245490715765566,1152.8373689098057
118,249.8649633,1109,21785,1109.3654442909026,23367.054746426424,1162,0.002563358483265622,0.0022394003509421706,1153.9079480848725
119,250.397974325,1131,22428,1109.8811977621024,23968.614192846493,1175,0.002066018688078133,0.0022281421631218648,1155.0113252848087
120,250.93087999999997,1127,23281,1109.949217422797,24682.620920065667,1179,0.002347205922181096,0.002234100039543677,1156.624974518087
121,251.46368032499998,1116,24411,1109.4392398468608,25498.8340392756,1178,0.00266151534664091,0.002261691699547238,1158.872862352466
122,251.99637529999998,1114,25518,1108.9823325556424,26393.111123694256,1166,0.0021307982297983936,0.00228899221244492,1161.2807764615059
123,252.52896492499997,1111,26607,1108.6881016557352,27363.135790164597,1152,0.0016080953875117665,0.0023174077244833124,1164.137738114091
124,253.06144919999997,1113,27621,1108.2357697795887,28402.397789303857,1154,0.0015467028821487853,0.0023578755421675823,1167.7156900495822
125,253.593828125,1113,28810,1107.7145348705308,29511.251240118123,1171,0.0020940896125934217,0.0024097838183901564,1172.0821536161409
126,254.1261017,1111,30168,1107.665972049176,30681.006568664616,1174,0.0021681522524692846,0.0024653152442510504,1177.4326032299489
127,254.65826992499998,1107,31352,1107.8796348727958,31890.423543001496,1176,0.0022813688212927757,0.0025207209625847035,1183.275159120229
128,255.19033279999996,1105,32648,1108.1314186051566,33127.9471109192,1188,0.0026313286624607677,0.00258603730422572,1189.8221703775623
129,255.722290325,1106,34412,1108.226777503433,34388.562821354295,1205,0.002972437398666907,0.0026738838427388437,1197.582980361933
130,256.2541425,1109,35860,1108.2397109787098,35668.06661532469,1224,0.0033092572875600703,0.002779074638804997,1206.4555482570156
131,256.78588932499997,1116,37001,1108.3591700831062,36952.073591700115,1224,0.0030096140448655426,0.0028933572846777146,1216.2692699721165
132,257.3175308,1114,38515,1108.13454438377,38218.58871095534,1231,0.0031282586027111575,0.00305201849233572,1227.4618224648116
133,257.849066925,1111,40288,1107.5109968515496,39453.45536705173,1237,0.0032161727544222376,0.0032511894689269054,1239.741285193299
134,258.3804977,1102,41992,1106.7724297265863,40659.34505877745,1232,0.0031792614331132307,0.0034806588301058436,1253.1935944188756
135,258.91182312499996,1108,43423,1106.4649029422876,41837.84774286993,1257,0.003521209972822876,0.0037225057366642843,1267.9941335024332
136,259.4430432,1116,44458,1106.3111735259931,42972.7168678784,1279,0.003760786304277606,0.003976738264031446,1283.7935174069382
137,259.974157925,1108,45347,1106.4311535934914,44060.08308228867,1298,0.004294852957797419,0.004245145836867781,1300.9045051982812
138,260.5051673,1090,46203,1106.428186368866,45102.25511336524,1320,0.005098308691507991,0.004537194462606434,1319.3869396815078
139,261.03607132499997,1098,47143,1106.04613921038,46082.31559038621,1341,0.005277445976761864,0.004853099935771402,1338.8755351196826
140,261.56687,1107,47970,1105.2475027746736,46996.118190671594,1360,0.005398715404476879,0.005242345622554841,1360.6381344990566
141,262.097563325,1097,48865,1104.1460961742976,47841.92183288319,1376,0.005840730195947078,0.005677159274706134,1383.9778477428445
142,262.62815129999996,1099,50186,1102.991823144331,48607.4118779578,1386,0.0058467618717786786,0.0061290782741484475,1408.1208634396885
143,263.158633925,1096,51005,1101.7302543658764,49299.516183831074,1405,0.006191268107956481,0.006612274009934893,1433.5961856440413
144,263.6890112,1089,51328,1101.2073433146634,49918.679086728065,1439,0.006966699177929497,0.007130586482972028,1461.5214614147267
145,264.219283125,1097,51438,1101.574350494894,50448.3168814686,1475,0.007508790051846408,0.007670607334482158,1491.2563138462644
146,264.7494497,1112,51511,1101.551043058712,50899.03814355834,1506,0.007817615428877557,0.008251571218739878,1522.087657704562
147,265.27951092499995,1107,52059,1101.1537294162736,51290.79856848301,1548,0.008655204898728215,0.008878574231233057,1554.6677614441705
148,265.8094668,1106,52517,1100.9657976397896,51617.66773879265,1588,0.00937542549259886,0.00953958837547691,1589.366169109123
149,266.33931732499997,1112,52784,1100.5108835987014,51863.36159369309,1618,0.009792537544511534,0.010228790825074913,1624.8647081473787
150,266.8690625,1110,52668,1100.3310833767257,52018.182019976804,1646,0.010396058807556539,0.010943023136068554,1660.9727966658043
151,267.398702325,1096,52280,1100.4303834741233,52099.118145370354,1676,0.011331666145670521,0.011708726541851377,1698.912817957339
152,267.9282368,1089,52177,1100.4391945457216,52124.0426283711,1727,0.01248825555903539,0.012511924008387194,1738.3601440575897
153,268.457665925,1095,52087,1100.6989286280339,52084.27044780075,1784,0.013511923438970818,0.0133442517619033,1778.9906453146955
154,268.9869897,1102,51744,1101.0781671158818,51978.51860744199,1821,0.014197701512578492,0.014221959699408288,1820.9262723957163
155,269.516208125,1102,51192,1101.3540963555022,51827.4063738693,1857,0.01507286883609503,0.015154011483046069,1864.424516976566
