,x_(nm),baseline_dark,baseline_light,baseline_mirror,baseline_calibration,baseline_dark_smoothed,baseline_light_smoothed,raw_signal,calibrated_signal,calibrated_signal_smoothed,raw_signal_smoothed
0,186.23,1144,1138,0.3621226043733797,-0.06035376739556328,1128.7508434755928,3898.4735700440588,1147,-0.18106130218668984,,1494.1118162472226
1,186.775442325,1145,1144,1.18800459154587,-1.18800459154587,1134.5059095465303,2954.1755061644167,1141,4.75201836618348,,1372.9152407423228
2,187.3207793,1143,1145,1.908567993433533,0.9542839967167664,1139.9487555576973,2127.9421077639317,1128,-14.314259950751497,,1267.3403840749338
3,187.86601092499998,1135,1138,1.7279185264672412,0.5759728421557471,1145.0870484978375,1415.7412068584945,1127,-4.6077827372459765,,1176.8359242616584
4,188.41113719999998,1136,1140,1.043047789334166,0.2607619473335415,1149.9284553556945,813.540635463994,1135,-0.2607619473335415,,1100.8505393190987
5,188.956158125,1140,1143,0.840365554154959,0.2801218513849863,1154.4806431200118,317.3082255963204,1144,1.1204874055399452,,1038.8329072638576
6,189.50107369999998,1145,1146,0.8202728553565946,0.8202728553565946,1158.7512787795329,-76.98819072863716,1155,8.202728553565946,,990.2317061125375
7,190.045883925,1166,1158,0.837733819880384,-0.104716727485048,1162.7480293230014,-373.3807814949887,1164,0.209433454970096,,954.4956138817408
8,190.59058879999998,1171,1172,0.8116271105193998,0.8116271105193998,1166.478561739161,-575.9017146868437,1171,0.0,,931.0733085880704
9,191.135188325,1174,1174,0.8262856362484797,inf,1169.950543016755,-688.5831582883129,1171,-inf,,919.4134682481285
10,191.67968249999998,1189,1181,0.8012221689422371,-0.10015277111777963,1173.1716401445274,-715.4572802835073,1170,1.902902651237813,,918.9647708785179
11,192.22407132499998,1185,1170,0.7775424502505143,-0.051836163350034284,1176.1495201112214,-660.5562486565368,1176,0.46652547015030854,,929.175894495841
12,192.7683548,1173,1156,0.7753865851703869,-0.04561097559825805,1178.8918499055808,-527.9122313915113,1176,-0.13683292679477416,,949.4955171167004
13,193.312532925,1166,1148,0.7956261498651602,-0.04420145277028668,1181.406296516349,-321.55739647254177,1169,-0.13260435831086004,,979.3723167576985
14,193.8566057,1168,1161,0.7908861747409445,-0.11298373924870635,1183.7005269322697,-45.52391188373713,1160,0.9038699139896508,,1018.2549714354382
15,194.400573125,1179,1172,0.7942231778648126,-0.1134604539806875,1185.7822081420861,296.1560543907899,1165,1.5884463557296251,,1065.5921591665215
16,194.9444352,1190,1181,0.7947581770897779,-0.08830646412108643,1187.6590071345424,699.4503343669321,1186,0.35322585648434573,,1120.8325579675516
17,195.488191925,1199,1192,0.7914877943554887,-0.11306968490792695,1189.3385908983817,1160.3267600605768,1191,0.9045574792634156,,1183.4248458551306
18,196.0318433,1206,1197,0.7911116722494277,-0.08790129691660307,1190.8286264223477,1674.753163487616,1187,1.6701246414154585,,1252.8177008458608
19,196.575389325,1204,1197,0.7900325230816138,-0.11286178901165911,1192.1367806951841,2238.6973766639376,1178,2.934406514303137,,1328.4598009563456
20,197.11883,1195,1182,0.798472358442206,-0.06142095064940046,1193.2707207056344,2848.1272316054306,1170,1.5355237662350114,,1409.7998242031867
21,197.662165325,1183,1178,0.7981102791346143,-0.15962205582692285,1194.238113442442,3499.010560327987,1178,0.7981102791346142,,1496.2864486029873
22,198.2053953,1188,1177,0.8040599544843242,-0.07309635949857493,1195.0466258943507,4187.315194847495,1188,-0.0,,1587.3683521723492
23,198.74851992499998,1184,1174,0.8074165803696804,-0.08074165803696805,1195.7039250501039,4909.008967179839,1181,0.24222497411090416,,1682.494212927876
24,199.2915392,1194,1177,0.8060625325032217,-0.047415443088424804,1196.2176778984453,5660.059709340926,1186,0.37932354470739843,,1781.1127088861688
25,199.83445312499998,1216,1196,0.8122546130835153,-0.04061273065417577,1196.5955514280954,6436.435253346498,1207,0.3655145758875819,-inf,1882.6725180637932
26,200.3772617,1214,2169,0.8144257223941842,0.0008528018035541195,1197.0955854039498,7126.190717796418,1325,0.09466100019450727,-inf,1972.747582051651
27,200.919964925,1192,6166,0.8150182986479615,0.00016385570941856886,1196.8934517202879,7832.580715304842,1871,0.11125802669520826,-inf,2064.3164737592756
28,201.4625628,1187,10774,0.8232603193402961,8.587256903518266e-05,1196.4029083331216,8556.253437223782,2464,0.10965927065792826,-inf,2157.5744184465825
29,202.005055325,1196,12723,0.8194894939197722,7.109304189466229e-05,1196.3408004711089,9296.25259915269,2719,0.10827470280557067,inf,2252.8896917257034
30,202.5474425,1205,13580,0.8269202298982968,6.682183675945833e-05,1196.378445717887,10050.47534485473,2833,0.10878595024439816,inf,2349.193345262588
31,203.089724325,1200,14225,0.8298864771900701,6.371489268253898e-05,1196.0012910824478,10817.871140908986,2899,0.10825160266763373,inf,2446.1819520260465
32,203.63190079999998,1206,14876,0.8293789756785952,6.06714685938987e-05,1195.2682280459126,11597.881741375573,2980,0.10763118528557629,inf,2544.469523658471
33,204.173971925,1199,15380,0.8303112569560028,5.8550966571892166e-05,1195.241319169154,12389.165779519119,3057,0.10878769589057564,inf,2644.076060612874
34,204.71593769999998,1194,15732,0.832804584655424,5.728467359027541e-05,1195.4081406147136,13183.92681600917,3109,0.10970014992537741,inf,2743.6161407958884
35,205.257798125,1196,16026,0.8371769300637781,5.645157990989738e-05,1195.4723096785656,13974.998844820679,3130,0.10917735554574153,0.17940946736521404,2842.08543794871
36,205.7995532,1194,16449,0.8381556767340916,5.4943013879652025e-05,1195.6798341978072,14759.01168769366,3162,0.10812785131515519,0.1871471291577474,2939.6033205734566
37,206.34120292499998,1200,17093,0.840625124319978,5.2892790808530674e-05,1195.6176583840854,15536.23314231323,3226,0.10716079417808315,0.15636106173667283,3035.722258714749
38,206.88274729999998,1192,17751,0.8415937915656597,5.0823950212311115e-05,1194.940791410881,16304.369476092012,3286,0.10642535174457947,0.1058259933652609,3129.530000679457
39,207.424186325,1173,18061,0.8431564976534377,4.992636769620072e-05,1193.9057509796141,17053.33006410078,3321,0.10724183781143914,0.05169911064482215,3219.8499626264984
40,207.96552,1168,18295,0.844165982526256,4.928860760940363e-05,1192.8968946068765,17781.606831411467,3364,0.10823778231025037,0.027409529105724452,3306.5150966046162
41,208.506748325,1178,18667,0.8476484869242688,4.8467521695023656e-05,1192.243131214727,18492.77947405342,3391,0.10725862551108735,0.027701588633832624,3389.5434551178314
42,209.0478713,1195,19111,0.8491768105118729,4.7397678639867874e-05,1191.7329271330943,19182.773449001874,3449,0.10683436765426219,-0.005355892629271499,3469.125665360417
43,209.588888925,1204,19693,0.8502736512177026,4.59880821687329e-05,1191.2502661441706,19846.737638451224,3523,0.10664636254929159,-0.0209127071388968,3544.7141045096605
44,210.12980119999997,1192,20133,0.8513731200582484,4.494868909024066e-05,1191.0163310607034,20482.54356837035,3566,0.10670818790023133,-0.008667383013701634,3615.703458741918
45,210.670608125,1180,20577,0.8534308197221572,4.399808319441961e-05,1191.0547011257106,21075.496930847403,3611,0.10695934024563407,0.05231933654193115,3680.3850370336104
46,211.2113097,1177,20999,0.8557212941711507,4.317028020235853e-05,1191.0792543432237,21623.623366327243,3651,0.106803273220635,0.08365342487513963,3738.000317107904
47,211.751905925,1187,21218,0.8575135521308375,4.280932315565061e-05,1190.600081542028,22122.52080454781,3679,0.10668083330388133,0.09903479163589507,3788.6662891571
48,212.29239679999998,1195,21530,0.8580327959771828,4.2194875632022764e-05,1190.084939636209,22563.1237627122,3713,0.10624669684143333,0.09239028956353895,3831.306167750045
49,212.83278232499998,1188,21927,0.8587529108532552,4.1407633485378044e-05,1189.4230899906904,22949.53330766225,3750,0.10608635698953855,0.09281712753470465,3866.344560465621
50,213.37306249999997,1188,22408,0.8598387128136875,4.0520203242869344e-05,1188.874968855444,23283.30154703346,3791,0.1054740890411889,0.09832204050368423,3893.430156968373
51,213.91323732499998,1193,22994,0.8611437003932625,3.950019266975196e-05,1188.6198781399125,23558.15887109516,3848,0.10487301153819147,0.104844302945117,3911.0573285917385
52,214.45330679999998,1214,23632,0.8624756676121401,3.8472462646629496e-05,1188.4439738159185,23806.51015878004,3916,0.1039525940711929,0.10404530272614992,3923.5532401639152
53,214.993270925,1220,24188,0.8630074298534857,3.757433950946907e-05,1187.1427891911253,24128.988901220404,3958,0.10287854157692632,0.10369688092512427,3945.288205848301
54,215.5331297,1192,24695,0.8629495266956824,3.671656923353114e-05,1185.3460101021312,24560.21794378082,3983,0.1024759447307854,0.10329514036195221,3979.791569457896
55,216.07288312499998,1179,25200,0.8648478670709356,3.600382444823012e-05,1184.8599515277583,25030.425015288653,4040,0.10300694174638637,0.10283333656003979,4019.4525810323366
56,216.61253119999998,1186,25651,0.8650803831098881,3.535991756018345e-05,1185.757027339215,25507.349883349078,4099,0.10300343985281439,0.10237880607220345,4060.762508777018
57,217.152073925,1194,26013,0.8652291434094919,3.486156345579966e-05,1187.0660264105418,25994.541144759292,4127,0.1022489656158604,0.10188528704485372,4102.171963124793
58,217.69151129999997,1184,26304,0.8680312398394996,3.4555383751572434e-05,1188.3633151373529,26494.064735327585,4135,0.10197293745089026,0.10134507908262495,4143.59351287677
59,218.230843325,1176,26742,0.868212549145114,3.3959655368267e-05,1188.9165553013431,27006.98543568319,4171,0.10170916782795966,0.1008366215348598,4186.157444109639
60,218.77006999999998,1176,27315,0.868144571802742,3.3212616083352153e-05,1189.0393213889101,27529.453124645555,4220,0.10109920335772396,0.10036834539479855,4229.966250651122
61,219.30919132499997,1182,27923,0.8681762475955156,3.246611000319792e-05,1189.5212575596047,28053.5064667371,4248,0.09954109326980483,0.09987580081263939,4272.8380484268355
62,219.84820729999998,1185,28405,0.868951283960652,3.192326539164776e-05,1190.2169924573375,28580.592606853512,4281,0.09883442965254145,0.09934615013938562,4314.942943214939
63,220.38711792499998,1191,28840,0.8691522224557424,3.1435213658929524e-05,1190.7572538449115,29120.910258442436,4323,0.09845508917976727,0.09879106829716408,4357.653174477254
64,220.9259232,1192,29517,0.8692686507714266,3.0689096232000935e-05,1190.6791093795778,29680.570545198643,4383,0.09792890607631498,0.09821194780327655,4401.276722009474
65,221.464623125,1188,30180,0.8701622824311823,3.0013875635733385e-05,1190.1934132143194,30247.543704273587,4431,0.09733499868668337,0.097655890429513,4445.311649187892
66,222.0032177,1182,30606,0.86932404321908,2.954472686307368e-05,1189.6598790459352,30813.251330720377,4476,0.0973203302869647,0.09713490501282829,4489.412693379152
67,222.54170692499997,1185,31027,0.8705973257298546,2.9173558264521633e-05,1189.5406237966656,31377.82993952238,4516,0.09717712257912156,0.09659164803661553,4532.70957439571
68,223.0800908,1193,31472,0.8704844215444587,2.8748783696438412e-05,1189.7717955106343,31942.894448344767,4542,0.09627967659937224,0.09604637749662112,4576.069016285672
69,223.61836932499997,1194,31831,0.8703398065724872,2.8408127642147967e-05,1189.9642120999115,32510.941969239906,4558,0.09556494138818576,0.09550449630221394,4619.560941357587
70,224.1565425,1185,32554,0.8697053263836744,2.7724993668388356e-05,1189.925524926929,33079.97141498045,4606,0.09484720333955657,0.09497180157716706,4662.717615347937
71,224.69461032499999,1176,33223,0.8700422735223692,2.714894603308794e-05,1189.6470814740765,33648.07977530571,4663,0.09466837481737764,0.09446520740926892,4705.932705157444
72,225.23257279999999,1178,33940,0.8700397124616915,2.655636751302398e-05,1188.8873813676184,34210.42028131942,4716,0.09395642826107883,0.0939911066982483,4748.868875852137
73,225.77042992499997,1181,34877,0.8700678242154535,2.5821101145995177e-05,1188.5020045753922,34758.72481822851,4795,0.09331745954162657,0.09353602945244978,4790.695553693084
74,226.30818169999998,1179,35574,0.8699872642519537,2.5294003903240404e-05,1188.293030419692,35293.95562753335,4826,0.09224723223511776,0.09308878792426648,4831.199506217488
75,226.84582812499997,1183,36078,0.8700242014773532,2.493263222459817e-05,1187.6394482321002,35823.00373734331,4859,0.09165235605762287,0.09265684020592821,4870.676278058299
76,227.3833692,1198,36650,0.8696880407569096,2.453142391845057e-05,1186.9568733153412,36342.537158258834,4945,0.09191924542243429,0.09224408815671305,4909.584792407435
77,227.92080492499997,1200,36993,0.87010037851645,2.4309233048820998e-05,1186.4096355523116,36848.10079503428,4978,0.09184028245844574,0.0918628850568016,4948.289111871069
78,228.45813529999998,1223,37227,0.8693067287349536,2.4144726384150472e-05,1186.442071168067,37342.10290153726,4994,0.09104976319463143,0.09149541900498206,4986.7751251443015
79,228.99536032499998,1243,37558,0.8691277262341458,2.3933022889553787e-05,1186.5331717592471,37818.58646854896,5030,0.0906343576827402,0.09113485163699835,5023.862669596044
80,229.53248,1215,38116,0.86926662631248,2.3556722753109127e-05,1186.0048472218848,38267.9533171752,5055,0.09045781537193905,0.09078127814467839,5057.746834582792
81,230.069494325,1180,38884,0.8686441253792921,2.3038513828222262e-05,1185.5753471199573,38697.72058257191,5081,0.08987324244389504,0.09045952111165972,5090.363224534999
82,230.60640329999998,1159,39398,0.868302707705708,2.2707254575321216e-05,1185.3531903327141,39101.03220910931,5118,0.08989802086369669,0.09018566163625019,5121.916985662092
83,231.143206925,1162,39879,0.8687016218294412,2.243721419090945e-05,1185.4023873700196,39460.97673786421,5180,0.09015272661907417,0.08993805157890714,5150.164080726532
84,231.67990519999998,1179,40174,0.8683284847277679,2.2267687773503472e-05,1185.0459580058211,39777.68864526867,5207,0.08969424635167199,0.08971796484499532,5174.215905229916
85,232.216498125,1189,40391,0.8683608504247778,2.2150932361225904e-05,1184.4168837346033,40062.66816915369,5204,0.088935993430322,0.08953149521088082,5195.7272418400335
86,232.75298569999998,1179,40750,0.868249886800152,2.194157051376392e-05,1184.015946001019,40319.76189721094,5238,0.08906083471536774,0.08936764220064496,5215.4494552537
87,233.289367925,1168,41143,0.867778574191436,2.170803187470759e-05,1183.545289814016,40542.67852046402,5273,0.08911147084567467,0.0891925787609442,5231.5031371037985
88,233.8256448,1178,41389,0.8676471171202086,2.1577357367889598e-05,1182.835873972208,40721.42614781684,5292,0.0887692482114978,0.08902738814334954,5243.147138100422
89,234.36181632499998,1192,41409,0.8677489292852631,2.1576669798474854e-05,1182.2429726607397,40847.51138191047,5295,0.08852907618314232,0.08888199925070517,5250.195972728613
90,234.89788249999998,1186,41403,0.8672589311593729,2.156448594274493e-05,1181.7338105053118,40944.14586966783,5283,0.08834969890742599,0.08874038748009933,5254.514099979514
91,235.433843325,1178,41494,0.8668004592010585,2.150016021433323e-05,1181.0700355613717,41020.77145575132,5282,0.08823665751962358,0.08861101507871327,5257.063489546661
92,235.9696988,1168,41621,0.8665578153052318,2.1421348609626772e-05,1180.1775351649867,41059.92946612528,5287,0.08823453492305268,0.0885034875010995,5256.436068767028
93,236.505448925,1169,41688,0.8666098942893835,2.1387741412408586e-05,1179.1921900835582,41057.53317175848,5288,0.08809610687771097,0.08841207571729037,5251.875421866759
94,237.04109369999998,1179,41748,0.8664654382940954,2.1357820954277783e-05,1178.413282294027,41019.219642573225,5303,0.08807965361544158,0.08831942043071035,5243.944438152519
95,237.576633125,1175,41662,0.8658853313998153,2.1386749608511753e-05,1177.9766925637955,40941.42800516354,5302,0.08826311563432801,0.08821865454774558,5232.102267321922
96,238.11206719999998,1168,41546,0.8659634438688039,2.1446417451800583e-05,1177.2861672970848,40830.578019886416,5283,0.0882520078141594,0.08811580013908793,5216.97250220833
97,238.64739592499998,1177,41478,0.8653764850454776,2.1472829087255342e-05,1176.6206935604202,40695.81675689065,5262,0.08771650682143807,0.08801517450175353,5199.433282746962
98,239.1826193,1171,41376,0.865240351462597,2.1520715121566897e-05,1176.2270719608373,40550.42349770018,5248,0.08773995555062823,0.08788744554540173,5180.0489252303705
99,239.71773732499997,1171,41205,0.8654717432609225,2.161841792628572e-05,1175.8012186006251,40413.5400348811,5239,0.0879437241241303,0.08773856751602557,5160.771727558849
100,240.25275,1178,40742,0.8654328986505,2.1874251811002426e-05,1175.1007950349726,40279.00597974962,5215,0.08830635456101679,0.0875653439978403,5140.533352963729
101,240.787657325,1178,40332,0.8649750843904328,2.2091614761976625e-05,1174.658837119731,40140.25418469198,5169,0.0881676345150487,0.08738115895217616,5119.763935762887
102,241.3224593,1178,40080,0.8650023747478218,2.2235421694201374e-05,1174.7653627488505,40013.620670909106,5116,0.08756309063176501,0.08719833567415641,5100.600987564739
103,241.85715592499997,1182,39728,0.864426750181391,2.2425848341757668e-05,1174.7723617748761,39891.88115246022,5067,0.08712442080772854,0.0870198817408895,5082.012389861507
104,242.3917472,1193,39425,0.8640504083213235,2.2600188541570503e-05,1175.387777752588,39766.68422840758,5025,0.08660392249129817,0.0868086687451439,5062.418786382381
105,242.92623312499998,1192,39348,0.8638615542876957,2.2640254593974622e-05,1176.7522480690163,39651.03755464374,5021,0.08668953484032883,0.08655522868434007,5042.4531019954175
106,243.46061369999998,1176,38955,0.8647030136247108,2.2888456910577592e-05,1177.8686266959387,39563.16987927171,4979,0.08704480163092658,0.08625694398692256,5022.516138530788
107,243.994888925,1174,38661,0.863747888775786,2.3041264672440738e-05,1178.06145099547,39503.60465695636,4927,0.08647386631567008,0.08591694674204695,5002.660898321497
108,244.52905879999997,1172,38817,0.8628771528607923,2.2921427888452443e-05,1177.4729665450861,39463.96704342038,4916,0.08581782601436594,0.08555534530200819,4983.255747581956
109,245.063123325,1175,38885,0.8633129275796555,2.2893474610969384e-05,1176.7213526919975,39452.375478492526,4911,0.08553002114658162,0.08516922446088566,4965.077510249287
110,245.59708249999997,1174,38671,0.8623491049005171,2.2997815955956932e-05,1176.14383111733,39475.548936554995,4872,0.08504592340512873,0.08475007460186036,4948.682416362676
111,246.130936325,1162,38424,0.862505803534046,2.3147061444207128e-05,1175.9932954313576,39542.15690049529,4814,0.08453306839424443,0.08428828228761463,4934.48603592371
112,246.66468479999997,1166,38432,0.8631762817630669,2.3162568608465274e-05,1175.7010124804415,39660.79551065633,4794,0.08403379891151201,0.08379508566268679,4923.018686719877
113,247.19832792499997,1175,38706,0.8629529675416884,2.2993071528648007e-05,1175.111078393599,39832.70638066471,4805,0.08346484964899227,0.08326734394038474,4914.196018029758
114,247.7318657,1177,39318,0.8621360146885437,2.260391742976177e-05,1174.7573217966205,40052.092210468334,4839,0.0827755456277876,0.08268948664789082,4907.0880201136115
115,248.265298125,1176,39491,0.8624878814902607,2.251044973222656e-05,1174.9225803528734,40314.32127567932,4837,0.08241075646968143,0.08205926614266212,4901.211714874535
116,248.79862519999998,1178,39392,0.862427427307537,2.2568363094874572e-05,1175.2272758159643,40609.93390563694,4793,0.08158463258797158,0.08138423185803428,4895.934335998457
117,249.33184692499998,1180,39704,0.8621956715984717,2.2380741137952227e-05,1175.4798070171241,40930.18319780664,4796,0.08092875995483526,0.08066532562833972,4890.61521212249
118,249.8649633,1187,40246,0.8614594306460737,2.2055337582786904e-05,1175.461256200571,41289.724795577815,4829,0.0803255394765099,0.07990932591798998,4886.316088699537
119,250.397974325,1191,40736,0.861591555373828,2.1787623097074927e-05,1175.5644974970894,41696.4317651581,4837,0.07943767381193519,0.0791119063819508,4883.512378536227
