,x_(nm),baseline_dark,baseline_light,baseline_mirror,baseline_calibration,baseline_dark_smoothed,baseline_light_smoothed,raw_signal,calibrated_signal,calibrated_signal_smoothed,raw_signal_smoothed
0,186.23,1025,1026,0.3621226043733797,0.3621226043733797,1007.660861151427,3767.565313627482,1009,-5.793961669974075,,1141.8678581253496
1,186.775442325,1033,1036,1.18800459154587,0.39600153051528997,1017.1428555166623,2829.941234019826,1022,-4.356016835668189,,1100.523528463151
2,187.3207793,1033,1034,1.908567993433533,1.908567993433533,1025.974285447125,2009.6880233790125,1020,-24.81138391463593,,1064.690086349005
3,187.86601092499998,1038,1028,1.7279185264672412,-0.17279185264672411,1034.174989908881,1302.8040991691073,1018,3.4558370529344824,,1034.1820236851393
4,188.41113719999998,1036,1025,1.043047789334166,-0.094822526303106,1041.764807867995,705.2878788541775,1021,1.42233789454659,,1008.8138323737817
5,188.956158125,1028,1026,0.840365554154959,-0.4201827770774795,1048.7635782905327,213.13777989828986,1019,3.781644993697315,,988.40000431716
6,189.50107369999998,1035,1025,0.8202728553565946,-0.08202728553565945,1055.1911401425596,-177.64778023448844,1019,1.3124365685705512,,972.7550314175019
7,190.045883925,1052,1052,0.837733819880384,inf,1061.0673323901408,-471.070384080092,1032,-inf,,961.693405577035
8,190.59058879999998,1068,1075,0.8116271105193998,0.11594673007419998,1066.4119939993418,-671.1316141744533,1036,-3.7102953623743993,,955.0296186979874
9,191.135188325,1072,1070,0.8262856362484797,-0.41314281812423986,1071.244963936228,-781.8330530535045,1044,11.567998907478716,,952.5781626825866
10,191.67968249999998,1081,1071,0.8012221689422371,-0.0801222168942237,1075.586081166865,-807.1762832531808,1063,1.4421999040960267,,954.1535294330605
11,192.22407132499998,1075,1067,0.7775424502505143,-0.09719280628131428,1079.4551846573177,-751.1628873094137,1071,0.38877122512525714,,959.5702108516366
12,192.7683548,1066,1060,0.7753865851703869,-0.12923109752839781,1082.872113373652,-617.7944477581391,1058,1.0338487802271825,,968.642698840543
13,193.312532925,1063,1060,0.7956261498651602,-0.2652087166217201,1085.8567062819327,-411.07254713528664,1031,8.486678931895042,,981.1854853020071
14,193.8566057,1070,1070,0.7908861747409445,inf,1088.4288023482256,-134.99876797679326,1040,-inf,,997.0130621382568
15,194.400573125,1090,1084,0.7942231778648126,-0.13237052964413543,1090.6082405385962,206.42530718141006,1050,5.294821185765417,,1015.9399212515201
16,194.9444352,1093,1095,0.7947581770897779,0.39737908854488896,1092.4148598191096,609.1980958033914,1067,-10.331856302167113,,1037.7805545440242
17,195.488191925,1108,1103,0.7914877943554887,-0.15829755887109773,1093.8684991558312,1069.3180153532126,1082,4.115736530648541,,1062.3494539179974
18,196.0318433,1129,1110,0.7911116722494277,-0.0416374564341804,1094.9889975148265,1582.783483294946,1081,1.9985979088406594,,1089.4611112756675
19,196.575389325,1104,1105,0.7900325230816138,0.7900325230816138,1095.7961938621606,2145.5929170926547,1069,-27.65113830785648,,1118.9300185192612
20,197.11883,1085,1099,0.798472358442206,0.057033739888729,1096.3099271638994,2753.7447342104097,1061,-1.368809757329496,,1150.5706675510078
21,197.662165325,1088,1107,0.7981102791346143,0.0420058041649797,1096.5500363861079,3403.2373521122704,1074,-0.5880812583097158,,1184.1975502731339
22,198.2053953,1103,1098,0.8040599544843242,-0.16081199089686485,1096.5363604948514,4090.0691882623087,1072,4.98517171780281,,1219.6251585878676
23,198.74851992499998,1102,1076,0.8074165803696804,-0.031054483860372326,1096.2887384561955,4810.2386601245935,1056,1.428506257577127,,1256.6679843974368
24,199.2915392,1105,1083,0.8060625325032217,-0.03663920602287371,1095.8270092362056,5559.744185163185,1066,1.4289290348920747,,1295.140519604069
25,199.83445312499998,1131,1114,0.8122546130835153,-0.04777968312255972,1095.1710118009257,6334.584180842026,1096,1.6722889092895903,-inf,1334.8572561099656
26,200.3772617,1125,2079,0.8144257223941842,0.0008536957257800672,1094.6873541869368,7024.544451742828,1148,0.019635001692941547,-inf,1369.873858977527
27,200.919964925,1083,6067,0.8150182986479615,0.00016352694595665358,1093.7130852340724,7731.630705112087,1327,0.039900574813423476,,1405.6766404674809
28,201.4625628,1070,10643,0.8232603193402961,8.59981530701239e-05,1092.5765022990117,8455.702530068469,1544,0.04076312455523873,,1442.1155179052478
29,202.005055325,1081,12587,0.8194894939197722,7.122279627322894e-05,1092.015832748173,9195.492128926868,1646,0.04024087989437435,,1479.7768918888028
30,202.5474425,1090,13450,0.8269202298982968,6.690293122154506e-05,1091.3557498470877,9948.217490769704,1687,0.039941049939262396,,1518.4396475571068
31,203.089724325,1094,14105,0.8298864771900701,6.378345071017371e-05,1090.0692654420052,10715.13771546334,1721,0.03999222359527892,,1557.7553738476222
32,203.63190079999998,1098,14774,0.8293789756785952,6.064485051759251e-05,1088.3841763120133,11496.420168067007,1758,0.04002560134161105,,1597.6312487258747
33,204.173971925,1089,15280,0.8303112569560028,5.8509707346628344e-05,1087.1909443022284,12288.455729461362,1788,0.04089828543529321,-inf,1638.6553942331332
34,204.71593769999998,1085,15631,0.832804584655424,5.725316820125285e-05,1086.6100251421115,13083.624498855896,1810,0.04150854694590832,inf,1680.0682008652198
35,205.257798125,1085,15943,0.8371769300637781,5.634519653141595e-05,1085.9033273686625,13875.345511789357,1829,0.041920826219373465,inf,1721.8358739721975
36,205.7995532,1075,16396,0.8381556767340916,5.4706329660863624e-05,1085.5350744071004,14660.58533602092,1847,0.042233286498186716,inf,1764.2550907154978
37,206.34120292499998,1081,16952,0.840625124319978,5.296610952806868e-05,1084.7101859611562,15439.64338943095,1873,0.0419491587462304,inf,1807.0390722326322
38,206.88274729999998,1086,17554,0.8415937915656597,5.110479667024895e-05,1083.0295816439575,16209.372262112083,1910,0.04211035245628514,inf,1849.1345896848954
39,207.424186325,1071,17942,0.8431564976534377,4.997667581372993e-05,1081.172506738524,16960.57251579845,1934,0.043129871227248935,inf,1889.7632109447188
40,207.96552,1053,18226,0.844165982526256,4.915658199069795e-05,1079.4579039162627,17691.55063534814,1956,0.044388393537600254,0.30055987860502265,1930.0891299915825
41,208.506748325,1046,18606,0.8476484869242688,4.827155392507225e-05,1078.0099209494913,18404.730956533207,1976,0.044892545150317195,0.5738041866011703,1969.8247072413492
42,209.0478713,1064,19078,0.8491768105118729,4.713982516442061e-05,1076.3136650886563,19096.940995265664,2015,0.044829973731364,0.3764952928901666,2008.8008108903555
43,209.588888925,1078,19608,0.8502736512177026,4.588632764261752e-05,1075.5748035062877,19762.509977575555,2035,0.04391321555398497,0.5908092154339933,2047.0173956374608
44,210.12980119999997,1068,20003,0.8513731200582484,4.496293213933184e-05,1076.3513103354342,20398.857233459035,2047,0.04401871056440587,0.7642082193673091,2084.3226347142227
45,210.670608125,1065,20457,0.8534308197221572,4.40094275846822e-05,1076.367143083628,20992.766517927525,2080,0.04466956899845243,-0.007483227051125302,2119.5946907064304
46,211.2113097,1066,20875,0.8557212941711507,4.319861144788484e-05,1075.832861446445,21540.83489999732,2095,0.0444513711798735,-0.08888456145656254,2152.356021653903
47,211.751905925,1069,21096,0.8575135521308375,4.281787347734745e-05,1075.6926544202381,22040.010170105357,2115,0.044787495657305436,-0.15510703194216124,2182.894153887928
48,212.29239679999998,1083,21441,0.8580327959771828,4.2147204832359903e-05,1075.6104328523656,22480.998708917097,2140,0.04454959550780442,-0.046418356595358805,2210.6162766993166
49,212.83278232499998,1087,21930,0.8587529108532552,4.120102244654105e-05,1075.2765861061198,22869.028086705945,2161,0.04424989810758509,-0.02543804541708765,2235.487327006231
50,213.37306249999997,1085,22406,0.8598387128136875,4.0328254435236976e-05,1075.0036693922648,23205.45713379647,2208,0.04528862973077112,0.0028844827570672802,2257.890031484249
51,213.91323732499998,1083,22915,0.8611437003932625,3.9444105001523566e-05,1074.782010917554,23481.418695779746,2251,0.046070714641779524,0.04675571561101601,2277.9138825341015
52,214.45330679999998,1101,23540,0.8624756676121401,3.843645740060342e-05,1074.8285351876395,23728.410903983782,2305,0.046277494710326515,0.04648785728260233,2297.370314163357
53,214.993270925,1102,24102,0.8630074298534857,3.752206216754285e-05,1073.6228680151098,24049.48947880993,2350,0.04682753358509348,0.046735349187395234,2319.5363881401167
54,215.5331297,1081,24632,0.8629495266956824,3.6641736091702366e-05,1071.4943033817096,24478.20362862079,2371,0.047267839558296054,0.0469953582931969,2346.3447190196384
55,216.07288312499998,1073,25183,0.8648478670709356,3.587091941397493e-05,1070.6988833268952,24945.577657477606,2399,0.04756483914293076,0.04722298463911545,2376.095811909624
56,216.61253119999998,1075,25605,0.8650803831098881,3.526622026538476e-05,1071.1589390472964,25419.99349928602,2429,0.047750462239330965,0.047429947476026184,2407.2289066569565
57,217.152073925,1085,25901,0.8652291434094919,3.486577786143987e-05,1072.1199121157692,25902.257808783394,2459,0.047905578781618385,0.047625433075488256,2439.3747083738685
58,217.69151129999997,1077,26219,0.8680312398394996,3.452514675998328e-05,1073.3608009241225,26396.983827492753,2477,0.04833520546397659,0.047796224918631385,2472.17295974989
59,218.230843325,1065,26679,0.868212549145114,3.389601581733091e-05,1074.281478629167,26904.665247230456,2507,0.04887805480859118,0.04796400171985723,2505.275951890142
60,218.77006999999998,1067,27239,0.868144571802742,3.317073864445751e-05,1074.9344266008081,27420.316587011635,2538,0.048794156545996996,0.04812484015460843,2538.4480962195707
61,219.30919132499997,1059,27818,0.8681762475955156,3.2444270996506434e-05,1075.5434777684452,27937.25962082893,2567,0.0489259606627317,0.04827395726120035,2571.3723300640518
62,219.84820729999998,1063,28278,0.868951283960652,3.192913040458027e-05,1076.096876486423,28459.008086252827,2591,0.04878771125819865,0.048405865229222085,2604.073206641097
63,220.38711792499998,1078,28720,0.8691522224557424,3.144317424411195e-05,1076.9575754830028,28991.45403066832,2623,0.048579704207152956,0.04850640080311547,2637.045210536995
64,220.9259232,1076,29375,0.8692686507714266,3.0717292157723826e-05,1077.9376429817003,29540.501393009472,2658,0.04859475619351909,0.04858673255809786,2670.669256381747
65,221.464623125,1073,30007,0.8701622824311823,3.00740403135129e-05,1078.5030465015986,30100.907110013246,2681,0.04835905682412874,0.04866812060842239,2704.3725112686066
66,222.0032177,1082,30446,0.86932404321908,2.9605096145589156e-05,1078.0024689120726,30663.5030691516,2709,0.048167491428873555,0.04876622488128544,2737.4805771364627
67,222.54170692499997,1096,30849,0.8705973257298546,2.9260824983358135e-05,1077.0311898344034,31223.3123060539,2746,0.048280361222540924,0.0488609637974408,2769.7526557792403
68,223.0800908,1083,31298,0.8704844215444587,2.8809678025631596e-05,1076.5882805952365,31783.06244761995,2778,0.04883240425344555,0.04895037561817625,2802.6783392601787
69,223.61836932499997,1057,31685,0.8703398065724872,2.84164753353953e-05,1076.4897279666377,32344.107273097296,2792,0.049302584706910846,0.04899575894563242,2835.049536795796
70,224.1565425,1060,32379,0.8697053263836744,2.7769255927190344e-05,1076.2848988651856,32901.16111350137,2823,0.04895719819963658,0.04902135369716821,2866.5659244829462
71,224.69461032499999,1058,33083,0.8700422735223692,2.7167596362915508e-05,1076.0438968039841,33457.184760696095,2866,0.049119014224151235,0.04904396998028877,2897.8269722982977
72,225.23257279999999,1043,33798,0.8700397124616915,2.6562042816720852e-05,1075.8188860449636,34010.15719495279,2916,0.049750706195718156,0.0490374286010208,2928.082380121804
73,225.77042992499997,1053,34720,0.8700678242154535,2.584334286439105e-05,1075.733991709871,34552.162925546916,2968,0.04949000158530886,0.04902247645742776,2957.6649754240757
74,226.30818169999998,1061,35342,0.8699872642519537,2.5378118031911373e-05,1075.5358445264692,35084.45031597477,2999,0.049182792745844243,0.048981495920238906,2986.0380076558354
75,226.84582812499997,1064,35787,0.8700242014773532,2.5056135745107082e-05,1075.1202971754533,35613.62225644907,3034,0.04936058741786095,0.04891142871195425,3013.3579016511685
76,227.3833692,1097,36397,0.8696880407569096,2.463705497894928e-05,1074.6015538290583,36133.14845183287,3083,0.04892919118819327,0.04885755970869638,3040.5184715395008
77,227.92080492499997,1096,36800,0.87010037851645,2.436982910924406e-05,1074.152800742918,36638.12568801035,3091,0.0486178090729419,0.04880967721657278,3067.043534394831
78,228.45813529999998,1107,37014,0.8693067287349536,2.4209951506250972e-05,1074.4276427551947,37133.64490701869,3127,0.04890410204262696,0.04875195623443962,3093.3580375545853
79,228.99536032499998,1134,37332,0.8691277262341458,2.401037975120575e-05,1074.9949036218054,37611.57781603134,3168,0.0488371124139525,0.04869331114726533,3118.8372556569198
80,229.53248,1108,37871,0.86926662631248,2.3645149370630253e-05,1075.078597476706,38063.76538539871,3175,0.048874523749092735,0.04864413026279344,3142.82579446867
81,230.069494325,1079,38605,0.8686441253792921,2.314779420613154e-05,1074.9706448616978,38499.41529819401,3177,0.04856407224446397,0.04859657506741523,3165.785181997266
82,230.60640329999998,1068,39188,0.868302707705708,2.277814028608888e-05,1075.1259145167296,38908.64538268063,3181,0.0481302104245058,0.04853588269304182,3186.9211986680857
83,231.143206925,1064,39670,0.8687016218294412,2.2501725685889273e-05,1075.6346236607644,39274.842623841236,3198,0.048018682613687705,0.04847642382758643,3206.0494235429405
84,231.67990519999998,1067,39973,0.8683284847277679,2.231862655445864e-05,1075.636050646653,39599.95965933468,3219,0.048029684345194994,0.048428236311878335,3222.7220322090484
85,232.216498125,1073,40240,0.8683608504247778,2.217072664295907e-05,1074.791524156812,39895.5813268696,3238,0.04799962318200639,0.04840345325012454,3237.730594124381
86,232.75298569999998,1076,40635,0.868249886800152,2.1948226365685484e-05,1074.1350426963031,40165.24725361766,3262,0.04797882283538847,0.04836921700137686,3251.1542277287654
87,233.289367925,1068,41013,0.867778574191436,2.1724335315845186e-05,1073.2445582006183,40402.740900132856,3281,0.0480759540539654,0.04833876725102134,3262.764320822606
88,233.8256448,1062,41266,0.8676471171202086,2.158111424535391e-05,1072.5291399578493,40598.505923123186,3287,0.04801797919591245,0.04831868645977493,3272.690887675762
89,234.36181632499998,1062,41322,0.8677489292852631,2.1553624671765105e-05,1072.4727400393915,40745.03440621453,3287,0.04795681489467736,0.04829173879991778,3280.2343427936576
90,234.89788249999998,1059,41255,0.8672589311593729,2.157575209372507e-05,1072.3191465265147,40861.91866180356,3289,0.048113927169006906,0.04825992676649948,3285.8695553692546
91,235.433843325,1073,41277,0.8668004592010585,2.156005519851404e-05,1071.9707807651157,40958.051235587795,3308,0.04818672336867888,0.0482175032774912,3289.7526331286604
92,235.9696988,1077,41473,0.8665578153052318,2.1451574792188132e-05,1071.756302520988,41019.51242383668,3331,0.04835184958159205,0.04816154611845303,3291.3529411764075
93,236.505448925,1073,41609,0.8666098942893835,2.1378771814914732e-05,1071.5666946023487,41041.00727083208,3319,0.04801672149629849,0.04811124266261946,3290.8800652335776
94,237.04109369999998,1074,41705,0.8664654382940954,2.132523044705017e-05,1070.7587940836506,41028.72733244162,3324,0.04798176850586288,0.04807872275725044,3288.6039774399696
95,237.576633125,1066,41783,0.8658853313998153,2.1265941287418406e-05,1069.2892477745609,40977.98688531939,3325,0.04803976136827818,0.04806453749559427,3284.2668916622624
96,238.11206719999998,1060,41739,0.8659634438688039,2.128772693204857e-05,1068.3408457722508,40892.665677591,3321,0.04813155059336182,0.048042018113329664,3278.225644974908
97,238.64739592499998,1055,41635,0.8653764850454776,2.1325196772929463e-05,1067.2002536863597,40784.12079548722,3319,0.048280245493912306,0.04804306748358768,3271.643547985169
98,239.1826193,1047,41480,0.865240351462597,2.1399360706912598e-05,1065.4482547735872,40667.27740152587,3303,0.04827695775479482,0.04807902300652692,3265.548959206262
99,239.71773732499997,1061,41270,0.8654717432609225,2.1524328962692992e-05,1064.0845319259574,40560.18100070139,3304,0.04827906986332038,0.048101958501626005,3259.868445491342
100,240.25275,1073,40848,0.8654328986505,2.1758212411074797e-05,1062.924550952436,40451.7676731062,3290,0.04823795691535283,0.04811363936958589,3253.7481936170075
101,240.787657325,1077,40509,0.8649750843904328,2.1935866412822904e-05,1061.8393168587988,40337.39973725261,3266,0.04801761157766934,0.0481378508095959,3247.849192507129
102,241.3224593,1075,40270,0.8650023747478218,2.206920206015619e-05,1061.6467190649641,40234.81967881416,3251,0.04802258368289987,0.04816127600390285,3243.4792860539824
103,241.85715592499997,1072,39892,0.864426750181391,2.226756182847478e-05,1061.6776370925527,40137.374119458334,3231,0.048075665987677055,0.04817763868289861,3239.2782622482337
104,242.3917472,1068,39657,0.8640504083213235,2.239110648944838e-05,1062.0325715191534,40035.07069242715,3223,0.04825283448476126,0.048201871829180766,3235.46535595364
105,242.92623312499998,1066,39628,0.8638615542876957,2.2401886683462884e-05,1063.309610636687,39939.77788851313,3211,0.04805204693602789,0.04822813887315218,3233.064304967208
106,243.46061369999998,1064,39260,0.8647030136247108,2.2638575076571127e-05,1064.5590840109423,39869.21085415221,3185,0.048016417737407356,0.04826208479973535,3232.351899250204
107,243.994888925,1055,39026,0.863747888775786,2.2747567585151456e-05,1065.1161747717751,39822.947088268505,3185,0.0484523189563726,0.048283881194783086,3231.754150716829
108,244.52905879999997,1051,39189,0.8628771528607923,2.262512855579192e-05,1065.1014292509253,39795.55666039924,3192,0.0484404002379505,0.04829184777485797,3231.1053024982957
109,245.063123325,1059,39292,0.8633129275796555,2.258030830904338e-05,1065.1607963940091,39791.25185168331,3203,0.048412181014589,0.04829905288931808,3231.7726335816724
110,245.59708249999997,1075,39113,0.8623491049005171,2.2670726770611416e-05,1065.249405422526,39816.85437948689,3199,0.048152623660778646,0.048309670916169445,3234.3254433848397
111,246.130936325,1070,38878,0.862505803534046,2.2812785747303375e-05,1065.3328727717296,39885.725044734114,3193,0.04843154414152506,0.04831823292184116,3239.181997327171
112,246.66468479999997,1068,38871,0.8631762817630669,2.2833539183743802e-05,1065.6600602504948,40004.38904618374,3193,0.04852127076545558,0.048320379823182935,3246.661759043178
113,247.19832792499997,1063,39108,0.8629529675416884,2.2682427849696106e-05,1065.7203787175042,40171.87306620684,3183,0.048086747041355744,0.04833295767625047,3257.2480237377345
114,247.7318657,1053,39664,0.8621360146885437,2.232876679414011e-05,1065.4995583138711,40382.8089650947,3207,0.048096163674577794,0.04834118490804475,3269.763460100959
115,248.265298125,1052,39867,0.8624878814902607,2.222047871931626e-05,1065.26655190376,40633.218306189636,3224,0.04826287977835492,0.04834719092297391,3284.3903825680586
116,248.79862519999998,1053,39805,0.862427427307537,2.2255043025070627e-05,1065.4680740220413,40913.860857549786,3227,0.048382463536503544,0.048350976030759565,3300.9430111666675
117,249.33184692499998,1056,40071,0.8621956715984717,2.209908167623918e-05,1066.2703118983236,41214.46664703539,3257,0.048640078769402434,0.04834470193032857,3318.610568755741
118,249.8649633,1072,40563,0.8614594306460737,2.1814069804412997e-05,1067.1516455638653,41553.76160275351,3298,0.04855811938462333,0.048345179553783584,3338.840743844644
119,250.397974325,1086,40990,0.861591555373828,2.1591608745334503e-05,1067.9696029354934,41938.03728283687,3335,0.04855952806825729,0.04832461440498424,3360.3066887131567
