,x_(nm),baseline_dark,baseline_light,baseline_mirror,baseline_calibration,baseline_dark_smoothed,baseline_light_smoothed,raw_signal,calibrated_signal,calibrated_signal_smoothed,raw_signal_smoothed
0,186.23,1196,1190,0.3621226043733797,-0.06035376739556328,1166.407963927386,4010.0823396605947,1214,-1.086367813120139,,1585.6515078213224
1,186.775442325,1187,1187,1.18800459154587,inf,1176.667866979076,3046.0723109176006,1205,inf,,1454.1660586053515
2,187.3207793,1185,1191,1.908567993433533,0.31809466557225546,1186.2300746003928,2202.702048443959,1193,2.5447573245780437,,1339.756757352194
3,187.86601092499998,1188,1194,1.7279185264672412,0.28798642107787353,1195.116400816091,1475.8586088813881,1191,0.8639592632336206,,1241.8167810907653
4,188.41113719999998,1195,1198,1.043047789334166,0.34768259644472205,1203.3486596509265,861.429048871606,1200,1.7384129822236103,,1159.7393068499805
5,188.956158125,1194,1202,0.840365554154959,0.10504569426936987,1210.9486651296543,355.3004250563308,1200,0.6302741656162192,,1092.9175116587544
6,189.50107369999998,1197,1206,0.8202728553565946,0.09114142837295496,1217.9382312770292,-46.64020592271845,1195,-0.1822828567459099,,1040.7445725460025
7,190.045883925,1217,1223,0.837733819880384,0.13962230331339734,1224.3391721178068,-348.5057874238246,1214,-0.41886690994019204,,1002.6136665406393
8,190.59058879999998,1228,1230,0.8116271105193998,0.4058135552596999,1230.173301676742,-554.4092628052704,1238,4.058135552596999,,977.9179706715806
9,191.135188325,1228,1233,0.8262856362484797,0.16525712724969593,1235.4624339785905,-668.4635754253359,1250,3.6356567994933107,,966.050661967741
10,191.67968249999998,1246,1242,0.8012221689422371,-0.20030554223555927,1240.228383048107,-694.7816686423039,1258,-2.403666506826711,,966.4049174580359
11,192.22407132499998,1260,1232,0.7775424502505143,-0.02776937322323265,1244.492962910047,-637.4764858144572,1251,0.24992435900909385,,978.3739141713802
12,192.7683548,1248,1227,0.7753865851703869,-0.03692317072239938,1248.2779875891656,-500.66097030007586,1239,0.3323085365015944,,1001.3508291366892
13,193.312532925,1235,1240,0.7956261498651602,0.15912522997303205,1251.605271110218,-288.4480654574427,1225,-1.5912522997303205,,1034.7288393828776
14,193.8566057,1236,1246,0.7908861747409445,0.07908861747409444,1254.4966274979593,-4.950714644839536,1232,-0.3163544698963778,,1077.9011219388608
15,194.400573125,1247,1234,0.7942231778648126,-0.06109409060498558,1256.9738707771448,345.7181387794535,1245,0.12218818120997116,,1130.260853833554
16,194.9444352,1255,1237,0.7947581770897779,-0.04415323206054322,1259.0588149725297,759.4455514571519,1259,-0.17661292824217287,,1191.201212095872
17,195.488191925,1272,1263,0.7914877943554887,-0.08794308826172097,1260.7732741088694,1232.1185800299736,1271,0.08794308826172097,,1260.1153737547304
18,196.0318433,1284,1276,0.7911116722494277,-0.09888895903117846,1262.1390622109188,1759.6242811396378,1276,0.7911116722494277,,1336.3965158390436
19,196.575389325,1280,1258,0.7900325230816138,-0.035910569230982445,1263.1779933034331,2337.849711427864,1273,0.2513739846168771,,1419.4378153777272
20,197.11883,1272,1246,0.798472358442206,-0.03071047532470023,1263.9118814111678,2962.6819275363696,1264,0.24568380259760184,,1508.6324493996958
21,197.662165325,1276,1261,0.7981102791346143,-0.05320735194230762,1264.3625405588778,3630.0079861068707,1269,0.37245146359615333,,1603.3735949338652
22,198.2053953,1269,1267,0.8040599544843242,-0.4020299772421621,1264.5517847713184,4335.714943781085,1268,0.4020299772421621,,1703.05442900915
23,198.74851992499998,1257,1261,0.8074165803696804,0.2018541450924201,1264.5014280732448,5075.6898572007385,1251,-1.2111248705545208,,1807.0681286544657
24,199.2915392,1263,1265,0.8060625325032217,0.40303126625161084,1264.2332844894122,5845.819783007536,1252,-4.433343928767719,,1914.8078708987275
25,199.83445312499998,1293,1278,0.8122546130835153,-0.05415030753890102,1263.769168044552,6641.991777843085,1284,0.4873527678501092,-inf,2025.6668327708055
26,200.3772617,1291,2267,0.8144257223941842,0.0008344525844202707,1263.8870416090722,7349.9125914515325,1426,0.11265109889673655,-inf,2123.60612924411
27,200.919964925,1256,6368,0.8150182986479615,0.00015943237453989857,1263.141634012071,8074.8333597588435,1995,0.11782052478498505,-0.21485877011972349,2222.9575754829807
28,201.4625628,1238,11079,0.8232603193402961,8.365616495684342e-05,1262.1148383881614,8816.806767990049,2623,0.11586378846522813,-0.1752778774046365,2323.88783437899
29,202.005055325,1242,13041,0.8194894939197722,6.945414814134861e-05,1261.528120682211,9575.566671951616,2924,0.11682187717374837,-0.17635495738264476,2426.8844141429695
30,202.5474425,1264,13929,0.8269202298982968,6.529176706658483e-05,1261.1520306235461,10348.11323019754,3074,0.11817809839051854,-0.14482034855011802,2531.318965321929
31,203.089724325,1263,14610,0.8298864771900701,6.217775359182364e-05,1259.9947224172447,11135.010849622657,3163,0.11813773182446491,-0.1394987925526501,2636.6535595369724
32,203.63190079999998,1263,15304,0.8293789756785952,5.906836946646216e-05,1258.4062606174307,11937.401164239052,3235,0.11648282458786338,-0.15710767011156607,2742.602188044976
33,204.173971925,1251,15824,0.8303112569560028,5.697600061456137e-05,1257.5449500554698,12752.16917710456,3295,0.11645894525616345,-0.18375874924598715,2849.600149493705
34,204.71593769999998,1248,16197,0.832804584655424,5.570971868723152e-05,1257.0980769666119,13570.515957326066,3350,0.11710182868056065,-0.06814272193248179,2956.8336542163465
35,205.257798125,1248,16550,0.8371769300637781,5.4710294736882635e-05,1256.5461052345227,14385.61108971863,3397,0.11757242338956078,0.057703116161843065,3063.493306756606
36,205.7995532,1241,16976,0.8381556767340916,5.3266963885229846e-05,1256.1751795057405,15193.099617205082,3419,0.1160154473420306,0.010102006640173883,3169.4705655846647
37,206.34120292499998,1255,17557,0.840625124319978,5.1565766428657713e-05,1255.9627624634518,15994.225463770106,3467,0.11406347534019086,0.03533541533283178,3273.69573489767
38,206.88274729999998,1244,18210,0.8415937915656597,4.960472660412942e-05,1255.5306348954434,16786.123490905473,3541,0.11394205700968528,0.06538997910587598,3374.828806994431
39,207.424186325,1232,18596,0.8431564976534377,4.85577342578575e-05,1254.3919454574043,17560.60499671533,3581,0.11406211777170727,0.0357758243039982,3471.380869328797
40,207.96552,1236,18863,0.844165982526256,4.789050788711953e-05,1253.0638746064221,18315.724931481676,3625,0.11441042334232857,0.03868170485423992,3564.332533013137
41,208.506748325,1240,19246,0.8476484869242688,4.7075890643356035e-05,1251.991483385783,19051.410496273613,3675,0.11462979371657195,0.054263903390350025,3653.7606740808833
42,209.0478713,1255,19707,0.8491768105118729,4.602085467764323e-05,1251.1827900971468,19765.21832884059,3736,0.11417774045523285,0.061159883970427986,3739.7204693197314
43,209.588888925,1258,20240,0.8502736512177026,4.4793680919697745e-05,1250.795510657069,20451.002718067968,3797,0.11373115585511258,0.07584442539959468,3821.2334594214317
44,210.12980119999997,1254,20669,0.8513731200582484,4.385130672460718e-05,1250.8633491132061,21107.48069038896,3830,0.11296096612258809,0.11405209175337482,3897.873179460388
45,210.670608125,1255,21159,0.8534308197221572,4.287735227703764e-05,1250.9669301682698,21720.34000770078,3879,0.11251017237494677,0.1397167863921361,3967.965072821505
46,211.2113097,1250,21612,0.8557212941711507,4.2025404880225455e-05,1250.9239167364822,22286.441051892023,3920,0.11220783103020196,0.16705182268509217,4030.558336542086
47,211.751905925,1241,21857,0.8575135521308375,4.1594565004406165e-05,1251.264762508753,22803.844798296235,3930,0.11184778529684818,0.20032755142843395,4084.991234229462
48,212.29239679999998,1250,22184,0.8580327959771828,4.098752249819351e-05,1251.3531903327132,23261.70155609369,3973,0.11160902376258092,0.23719240217931756,4129.810686538687
49,212.83278232499998,1254,22621,0.8587529108532552,4.0190616878984194e-05,1250.8994088201077,23664.94468730843,4033,0.11168972430669707,0.2246575196616691,4165.705519943746
50,213.37306249999997,1253,23147,0.8598387128136875,3.9272801352593745e-05,1250.8021019728405,24017.217536070573,4085,0.11122057343054549,0.10093078609673191,4192.93970418348
51,213.91323732499998,1262,23714,0.8611437003932625,3.835487708860068e-05,1251.0408616276459,24308.575981335467,4142,0.11046204601516996,0.11032054842138436,4211.006025051449
52,214.45330679999998,1276,24370,0.8624756676121401,3.734630932762363e-05,1251.4787650909182,24569.994903621355,4218,0.10987284204186873,0.10969383507439774,4224.190695145902
53,214.993270925,1277,24977,0.8630074298534857,3.6413815605632306e-05,1250.7282384651735,24906.987519535636,4273,0.1090957915544744,0.10917303403909055,4245.346078053782
54,215.5331297,1256,25523,0.8629495266956824,3.556061839929461e-05,1248.9434641781,25355.039276087304,4305,0.10842432549944928,0.10857340355567395,4279.238759654723
55,216.07288312499998,1244,26095,0.8648478670709356,3.480133061329265e-05,1248.0790278375262,25841.070556524,4354,0.10823213820734015,0.10800172634484326,4319.815375206604
56,216.61253119999998,1258,26559,0.8650803831098881,3.4191549073549985e-05,1248.4422297220535,26333.313370630764,4398,0.10736146409094695,0.10747267543241788,4362.397268341215
57,217.152073925,1266,26866,0.8652291434094919,3.379801341443328e-05,1249.1056196063091,26834.198283086305,4429,0.10690311642985245,0.10694736432711735,4405.8948560555455
58,217.69151129999997,1253,27155,0.8680312398394996,3.351213187551153e-05,1249.7282837663126,27346.250741805634,4451,0.10717179773788586,0.10637057190249234,4449.597839135569
59,218.230843325,1242,27608,0.868212549145114,3.292924786259251e-05,1249.835443611383,27870.651702189774,4491,0.10698712630556305,0.10579047279690526,4493.73569050253
60,218.77006999999998,1237,28188,0.868144571802742,3.2211961404131273e-05,1250.1684975876904,28403.996466510587,4533,0.10617062478801667,0.10522847102823664,4538.70687897792
61,219.30919132499997,1242,28836,0.8681762475955156,3.146250081885611e-05,1250.6648168701204,28938.47799497102,4558,0.10432965271532686,0.10467952613695457,4583.151056648987
62,219.84820729999998,1248,29322,0.868951283960652,3.095217225762813e-05,1250.7343767695518,29474.54377222531,4584,0.10325644665144744,0.10408840699765126,4625.955038619132
63,220.38711792499998,1241,29786,0.8691522224557424,3.0448492641644506e-05,1250.987474234953,30021.275680082785,4630,0.10318994156253324,0.10344095648293214,4668.504926498811
64,220.9259232,1247,30436,0.8692686507714266,2.9780693095735606e-05,1250.8645269428284,30585.942920563866,4708,0.10307097880434093,0.10279053953052603,4712.390948832272
65,221.464623125,1249,31046,0.8701622824311823,2.9203016492639605e-05,1250.3013205281875,31160.95809644553,4759,0.10250258788916501,0.10215612143183213,4757.035606695416
66,222.0032177,1247,31517,0.86932404321908,2.871899713310472e-05,1249.6372058257025,31736.17329950787,4797,0.10195243982252176,0.10154383998912084,4801.6083716504545
67,222.54170692499997,1243,31940,0.8705973257298546,2.8360990511445894e-05,1249.2612743210252,32308.70391175276,4815,0.10130545810688474,0.10093123192647505,4844.967881492127
68,223.0800908,1245,32453,0.8704844215444587,2.7892989667535846e-05,1249.740469772791,32881.10426057152,4844,0.10038686981346151,0.10028983834569341,4887.210174635798
69,223.61836932499997,1244,32850,0.8703398065724872,2.7537170365515638e-05,1250.2227004008912,33452.74429771845,4859,0.09954687087133902,0.09964788546801681,4928.9257740831235
70,224.1565425,1242,33567,0.8697053263836744,2.6905037165774924e-05,1250.2075471697872,34020.987927245726,4901,0.09844553098957044,0.09900911648420102,4969.686969127178
71,224.69461032499999,1241,34286,0.8700422735223692,2.6329014178313486e-05,1250.136220525922,34588.129380053244,4949,0.0976279845731864,0.09837714867509316,5010.116106819991
72,225.23257279999999,1233,34983,0.8700397124616915,2.577895444330938e-05,1249.4842691793458,35151.427982513094,5016,0.09752178465903938,0.0977740306150265,5050.236789055148
73,225.77042992499997,1235,35944,0.8700678242154535,2.506749904103989e-05,1248.4674851072264,35703.78774151101,5114,0.09723682878019373,0.09718467844540599,5088.701080432075
74,226.30818169999998,1241,36620,0.8699872642519537,2.4590499003701454e-05,1248.191759722733,36244.25857890256,5155,0.09624721310048749,0.0965891257594698,5125.498493737019
75,226.84582812499997,1234,37016,0.8700242014773532,2.431457720298902e-05,1248.020702620647,36778.58809938999,5180,0.09594532164299467,0.09602016479402498,5161.992230854507
76,227.3833692,1257,37579,0.8696880407569096,2.3943836813967008e-05,1247.6491879770535,37307.213594871195,5234,0.0952246390091468,0.095480290914331,5198.399827855572
77,227.92080492499997,1258,37983,0.87010037851645,2.369231799908645e-05,1247.5825726516782,37823.430089016016,5246,0.09448496418035676,0.09495236662839386,5233.9291716685675
78,228.45813529999998,1271,38211,0.8693067287349536,2.3532937973333882e-05,1247.9766472626545,38330.92391673577,5296,0.09472007534266888,0.09445282218764545,5269.768918888209
79,228.99536032499998,1294,38517,0.8691277262341458,2.3349212213796465e-05,1248.5272826111336,38825.616752360576,5345,0.09458765867808948,0.09396778653620538,5304.7959410178155
80,229.53248,1271,39076,0.86926662631248,2.299343013655548e-05,1248.4250379396804,39298.02826791019,5347,0.09372122123660015,0.09349830392852897,5337.400190264682
81,230.069494325,1254,39846,0.8686441253792921,2.2508398771229584e-05,1247.86242043985,39758.23194183258,5386,0.09300470372272064,0.09306548838723709,5369.466511132652
82,230.60640329999998,1245,40412,0.868302707705708,2.216924216063799e-05,1247.711454393054,40196.90040544443,5413,0.09240140132553913,0.09265610321040374,5400.388026908773
83,231.143206925,1248,40950,0.8687016218294412,2.1880550648064107e-05,1247.7032322362668,40593.31106027239,5452,0.09198583492446151,0.09228481685495887,5428.242564950405
84,231.67990519999998,1255,41281,0.8683284847277679,2.1694110946079248e-05,1247.4293868490554,40947.35450406499,5473,0.09150575997056226,0.09197174294797232,5453.075154590033
85,232.216498125,1244,41529,0.8683608504247778,2.1555438759458307e-05,1246.8761466850654,41275.72475027668,5472,0.09113639507498972,0.09170144386961276,5476.196221884875
86,232.75298569999998,1236,41965,0.868249886800152,2.1317731513176164e-05,1246.0887675824806,41584.686810572486,5506,0.09102671356126221,0.09144160663320076,5497.353462139468
87,233.289367925,1240,42428,0.867778574191436,2.1068723273561135e-05,1245.3724659674951,41867.28052730446,5551,0.09082726603232205,0.09115816521848485,5515.154544836697
88,233.8256448,1246,42715,0.8676471171202086,2.092278851962209e-05,1245.118824888422,42109.93424539546,5572,0.09051198313588517,0.09088702765683337,5529.685292985012
89,234.36181632499998,1247,42791,0.8677489292852631,2.088746700571113e-05,1244.752904935535,42304.85542141304,5562,0.09012942012964352,0.09066127880868743,5540.7897800628625
90,234.89788249999998,1247,42776,0.8672589311593729,2.0883212481865032e-05,1244.3360212009095,42474.71206595764,5529,0.08942191584734607,0.09046479459825676,5550.320211103202
91,235.433843325,1251,42872,0.8668004592010585,2.082603635667232e-05,1243.8633717637758,42628.012639017055,5517,0.08884387109756411,0.0902988172768064,5559.201929828428
92,235.9696988,1242,43092,0.8665578153052318,2.0706279935608885e-05,1243.5347799496917,42750.07103218564,5546,0.08911982884286064,0.0901454664976385,5565.433010940119
93,236.505448925,1224,43239,0.8666098942893835,2.062620241079099e-05,1242.890099435977,42833.72957484798,5586,0.0899714949158703,0.0899982403326729,5567.300844866141
94,237.04109369999998,1223,43429,0.8664654382940954,2.0529437480313118e-05,1242.0827651815205,42886.7077623494,5610,0.09006264222613365,0.08986957741367864,5566.791705361283
95,237.576633125,1233,43551,0.8658853313998153,2.0461395420384122e-05,1241.3922625653797,42904.27710706842,5619,0.08974368031380475,0.08975481062448887,5563.471947269368
96,238.11206719999998,1234,43586,0.8659634438688039,2.0446813464979313e-05,1240.9171215655838,42889.53330766186,5618,0.08963883023046931,0.08962394231194627,5556.593354322755
97,238.64739592499998,1248,43602,0.8653764850454776,2.0431989541613012e-05,1240.2227004008912,42854.98828965466,5602,0.08896088246418306,0.0894779481590225,5546.637001970494
98,239.1826193,1251,43546,0.865240351462597,2.0457272761853578e-05,1239.1589390472934,42814.14328750285,5590,0.08876410651368268,0.08934451710616527,5536.280663208573
99,239.71773732499997,1233,43482,0.8654717432609225,2.0485023154652713e-05,1238.1788715485957,42784.35135563577,5604,0.08954003620898701,0.08921418682370988,5527.3986953270805
100,240.25275,1231,43212,0.8654328986505,2.061487098093185e-05,1237.245645427959,42756.51518720615,5586,0.0897777631219582,0.08906199890311978,5517.689120931285
101,240.787657325,1235,42895,0.8649750843904328,2.0762724061220183e-05,1236.176108179097,42720.25228204407,5546,0.0895081034279202,0.08891383004144435,5507.056331966644
102,241.3224593,1233,42757,0.8650023747478218,2.08313836515707e-05,1235.904844956827,42691.28897596693,5532,0.08955411831810245,0.08876468302049986,5497.835488912441
103,241.85715592499997,1233,42520,0.864426750181391,2.0937020131794296e-05,1235.69498742891,42663.88371197454,5494,0.0892126427815755,0.08860283393329546,5488.169267706978
104,242.3917472,1232,42313,0.8640504083213235,2.1032847504231237e-05,1235.7338331558803,42627.088042763455,5470,0.08913720772293199,0.08844395367586838,5477.8559650274165
105,242.92623312499998,1235,42327,0.8638615542876957,2.10226212958166e-05,1236.606786110647,42591.68493057519,5475,0.08913591429426238,0.08827425943528343,5467.767152143771
106,243.46061369999998,1238,41973,0.8647030136247108,2.1227519666741397e-05,1237.303993295408,42575.8813563153,5428,0.08894330740364645,0.08808810331294241,5458.633015470234
107,243.994888925,1238,41750,0.863747888775786,2.132079109339914e-05,1237.3637907993148,42579.05266257365,5389,0.08850260382869983,0.0878862447395358,5450.235044961276
108,244.52905879999997,1244,42037,0.8628771528607923,2.115257894395588e-05,1237.1879997281696,42591.27522707115,5399,0.08788896551213668,0.08766565017017891,5441.933928288192
109,245.063123325,1243,42306,0.8633129275796555,2.1024107531832926e-05,1237.444562730729,42621.08450927459,5397,0.08733414268723397,0.08742355303248163,5434.702258261691
110,245.59708249999997,1242,42140,0.8623491049005171,2.1085361262177053e-05,1237.8791365602606,42676.04396475489,5364,0.08691385912269381,0.08714983715467989,5428.359441889859
111,246.130936325,1244,41832,0.862505803534046,2.1250266175570268e-05,1237.8364855375876,42766.07862012647,5337,0.08697733945660911,0.08685119270952775,5423.477315454379
112,246.66468479999997,1246,41811,0.8631762817630669,2.127884338131559e-05,1237.4757525651532,42898.22861219878,5338,0.08707302711634339,0.08653149380633418,5421.015175881569
113,247.19832792499997,1236,42128,0.8629529675416884,2.1103222330570486e-05,1237.1915785181761,43072.840879747295,5336,0.086523211555339,0.08620015316688259,5422.106706833573
114,247.7318657,1231,42776,0.8621360146885437,2.075185978309168e-05,1237.0913723979922,43283.0849396354,5363,0.08574668462373482,0.0858403183239946,5425.121588257841
115,248.265298125,1237,42930,0.8624878814902607,2.0686635202318392e-05,1237.307390880857,43522.32005254848,5369,0.08547717665597959,0.0854337447381201,5428.4255362521335
116,248.79862519999998,1241,42784,0.862427427307537,2.0759873560107286e-05,1237.8888536546458,43782.62080681245,5320,0.08467952425167762,0.08497691436357407,5431.2799610409165
117,249.33184692499998,1234,43021,0.8621956715984717,2.0633107703316142e-05,1238.6739223991246,44055.78096899052,5326,0.08443067672196965,0.08446829572859298,5432.903010260604
118,249.8649633,1240,43524,0.8614594306460737,2.0373177340035797e-05,1239.34537588618,44357.733153637964,5377,0.08428383465572808,0.08393704483752194,5435.686425513497
