,x_(nm),baseline_dark,baseline_light,baseline_mirror,baseline_calibration,baseline_dark_smoothed,baseline_light_smoothed,raw_signal,calibrated_signal,calibrated_signal_smoothed,raw_signal_smoothed
0,186.23,1086,1095,0.3621226043733797,0.04023584493037552,1076.6878175879272,3785.7999816601573,1082,-0.16094337972150208,,1326.0397943405703
1,186.775442325,1087,1080,1.18800459154587,-0.16971494164940998,1082.8046298667819,2856.9359805977074,1084,0.50914482494823,,1244.2611836800506
2,187.3207793,1097,1073,1.908567993433533,-0.07952366639306387,1088.5816868918173,2044.436801845411,1090,0.5566656647514471,,1173.100289482023
3,187.86601092499998,1094,1068,1.7279185264672412,-0.06645840486412466,1094.0281898987612,1344.3249279069928,1093,0.06645840486412466,,1112.1815885522076
4,188.41113719999998,1088,1067,1.043047789334166,-0.049668942349246,1099.1533401233407,752.6228412861792,1083,0.24834471174623002,,1061.129557696324
5,188.956158125,1082,1075,0.840365554154959,-0.12005222202213699,1103.9663388012832,265.3530244866952,1076,0.7203133321328219,,1019.5686737200917
6,189.50107369999998,1089,1079,0.8202728553565946,-0.08202728553565945,1108.476387168316,-121.46203998773308,1086,0.24608185660697834,,987.1234134292313
7,190.045883925,1117,1092,0.837733819880384,-0.03350935279521536,1112.6926864601662,-411.79986963338024,1106,0.3686028807473689,,963.4182536294624
8,190.59058879999998,1131,1105,0.8116271105193998,-0.031216427327669223,1116.6244379125615,-609.6379819465214,1112,0.5931121192257153,,948.0776711265047
9,191.135188325,1134,1106,0.8262856362484797,-0.02951020129458856,1120.280842761229,-718.9538944234305,1117,0.5016734220080056,,940.7261427260783
10,191.67968249999998,1138,1118,0.8012221689422371,-0.04006110844711185,1123.671102241896,-743.7251245603834,1124,0.5608555182595659,,940.988145233903
11,192.22407132499998,1124,1116,0.7775424502505143,-0.09719280628131428,1126.8044175902899,-687.9291898536517,1119,0.4859640314065714,,948.4881554556985
12,192.7683548,1119,1107,0.7753865851703869,-0.06461554876419891,1129.6899900421379,-555.5436077995105,1111,0.5169243901135913,,962.8506501971848
13,193.312532925,1123,1105,0.7956261498651602,-0.04420145277028668,1132.3370208331673,-350.54589589423585,1100,1.0166334137165935,,983.7001062640819
14,193.8566057,1131,1115,0.7908861747409445,-0.04943038592130903,1134.7547111991057,-76.91357163410203,1110,1.0380381043474896,,1010.6610004621095
15,194.400573125,1141,1124,0.7942231778648126,-0.04671901046263603,1136.9522623756802,261.37584748461904,1117,1.1212562511032647,,1043.3578095969874
16,194.9444352,1134,1133,0.7947581770897779,-0.7947581770897779,1138.938875598618,660.3448439656499,1117,13.510889010526224,,1081.4150104744358
17,195.488191925,1135,1135,0.7914877943554887,inf,1140.7237521036468,1116.015900312716,1130,-inf,,1124.4570799001742
18,196.0318433,1149,1133,0.7911116722494277,-0.04944447951558923,1142.3160931264936,1624.4114990295448,1140,0.44500031564030307,,1172.1084946799228
19,196.575389325,1153,1132,0.7900325230816138,-0.0376205963372197,1143.7250999028859,2181.554122619864,1135,0.6771707340699546,,1223.9937316194012
20,197.11883,1140,1133,0.798472358442206,-0.114067479777458,1144.9599736685507,2783.4662535873945,1129,1.254742277552038,,1279.7372675243291
21,197.662165325,1138,1139,0.7981102791346143,0.7981102791346143,1146.0299156592157,3426.1703744358647,1131,-5.5867719539423,,1338.9635792004271
22,198.2053953,1145,1138,0.8040599544843242,-0.1148657077834749,1146.944127110608,4105.688967668995,1123,2.5270455712364477,,1401.297143453414
23,198.74851992499998,1137,1132,0.8074165803696804,-0.1614833160739361,1147.711809258455,4818.0445157905215,1119,2.90669968933085,,1466.3624370890109
24,199.2915392,1149,1135,0.8060625325032217,-0.05757589517880155,1148.3421633384842,5559.2595013041555,1123,1.4969732746488404,,1533.7839369129365
25,199.83445312499998,1175,1149,0.8122546130835153,-0.031240562041673667,1148.844390586401,6325.3564067135085,1142,1.030938547375231,-inf,1603.1861197308806
26,200.3772617,1172,2115,0.8144257223941842,0.0008636540004180108,1149.3183764071446,7007.61591429011,1234,0.05354654802591667,-inf,1664.1164465785994
27,200.919964925,1152,6078,0.8150182986479615,0.00016545235457733688,1149.47072413869,7705.634306552663,1592,0.07279903601402822,-inf,1725.685972502175
28,201.4625628,1141,10631,0.8232603193402961,8.67502970853842e-05,1149.4303608235527,8419.593286370991,1982,0.07295699984880812,-inf,1788.037418741047
29,202.005055325,1139,12572,0.8194894939197722,7.167755566515983e-05,1149.5306122448758,9149.270832861272,2155,0.07282439655580238,-inf,1851.7773675507583
30,202.5474425,1148,13419,0.8269202298982968,6.73881696600356e-05,1149.4179256608084,9891.868989104885,2240,0.07358788126875887,-inf,1916.3355908400729
31,203.089724325,1153,14041,0.8298864771900701,6.439218476024752e-05,1148.8264513352292,10646.374889578268,2296,0.07360026718096292,-inf,1981.5314503159373
32,203.63190079999998,1156,14671,0.8293789756785952,6.136729379789828e-05,1148.4830686991559,11414.721579197498,2362,0.07400895632026533,-inf,2047.821490860456
33,204.173971925,1149,15153,0.8303112569560028,5.9291006637817966e-05,1149.138304378333,12195.037509343128,2394,0.07381730326408337,-inf,2115.3987179777164
34,204.71593769999998,1152,15506,0.832804584655424,5.8018990152948584e-05,1150.1166051325972,12978.503273007067,2424,0.0738001554745506,-inf,2183.3024530566527
35,205.257798125,1157,15791,0.8371769300637781,5.720766229764782e-05,1150.8530431040122,13758.841717818941,2454,0.07419833800004923,-inf,2250.5604203945295
36,205.7995532,1146,16205,0.8381556767340916,5.565812316449244e-05,1151.6180207932007,14530.979342680188,2485,0.07452622691725538,-inf,2317.1927110466386
37,206.34120292499998,1148,16810,0.840625124319978,5.367291050440416e-05,1151.8993861695403,15295.87773222467,2537,0.07455167269061738,inf,2383.2724410518463
38,206.88274729999998,1147,17418,0.8415937915656597,5.172354443891953e-05,1151.6491200253465,16051.981902194533,2571,0.0736543272810214,inf,2447.799678361864
39,207.424186325,1129,17748,0.8431564976534377,5.07344905020421e-05,1151.1071371944784,16789.570341343762,2585,0.0738694181709733,inf,2509.9039842351553
40,207.96552,1125,18036,0.844165982526256,4.991815874438271e-05,1150.7601984189685,17507.8792498128,2602,0.07372912046545327,inf,2570.6453147296165
41,208.506748325,1136,18394,0.8476484869242688,4.91162641629545e-05,1150.7525651769922,18208.713470293427,2640,0.07387086130108357,inf,2629.958662710317
42,209.0478713,1161,18812,0.8491768105118729,4.810927485762126e-05,1150.3496794944174,18887.66692337276,2684,0.07327042560815718,inf,2686.809078348269
43,209.588888925,1163,19343,0.8502736512177026,4.6769727789752616e-05,1149.8660671815676,19540.462116921866,2722,0.07291400562422433,0.08660230242457861,2740.8756936736436
44,210.12980119999997,1149,19770,0.8513731200582484,4.57211277621099e-05,1149.8606989965576,20164.669709392805,2751,0.07324524667490005,0.08037222254916575,2792.8528618994233
45,210.670608125,1139,20235,0.8534308197221572,4.4691601367938685e-05,1150.1442841287237,20747.38243221777,2782,0.07342830104752326,0.08294780836150942,2840.652245803927
46,211.2113097,1142,20660,0.8557212941711507,4.3842673131014996e-05,1149.9352646718844,21283.5412806628,2809,0.073085736109402,0.10700573961724376,2883.747491449355
47,211.751905925,1146,20863,0.8575135521308375,4.3491076336706264e-05,1149.331355183561,21772.438243221397,2812,0.07245613317695264,-0.0843081413780963,2922.6968221250204
48,212.29239679999998,1151,21186,0.8580327959771828,4.2826693085958715e-05,1148.893564973137,22205.136786789764,2842,0.07241993800835618,-0.04706767515599274,2955.8950146095603
49,212.83278232499998,1148,21655,0.8587529108532552,4.187608674370972e-05,1148.1672971075,22585.2772656228,2874,0.07227812571964297,0.015468302058073197,2983.989943147013
50,213.37306249999997,1149,22094,0.8598387128136875,4.105221832483588e-05,1148.0107816711368,22914.23076400327,2903,0.07200559094176213,0.048130481870497246,3007.33839951069
51,213.91323732499998,1155,22605,0.8611437003932625,4.0146559458893354e-05,1148.0588461799593,23184.249813132352,2954,0.07222366046654914,0.07368664001835175,3024.9117307299703
52,214.45330679999998,1161,23226,0.8624756676121401,3.9087952305104925e-05,1147.746358920905,23428.483544360693,3021,0.07270359128749516,0.07309182710973547,3039.781716460111
53,214.993270925,1174,23793,0.8630074298534857,3.8154093012665706e-05,1146.5426396973664,23746.46644318059,3086,0.07295062584021683,0.07298903018879388,3060.269655031765
54,215.5331297,1163,24299,0.8629495266956824,3.729899406533897e-05,1144.50490384831,24170.76235022264,3123,0.07310602836806437,0.07288817492681052,3089.387279440019
55,216.07288312499998,1158,24826,0.8648478670709356,3.6540808985589644e-05,1143.2454415728337,24636.34798070124,3157,0.0730450771621937,0.07277992902938561,3123.0940904663157
56,216.61253119999998,1160,25314,0.8650803831098881,3.5815201751672106e-05,1143.0277469478137,25109.744275068035,3189,0.0726690443541427,0.0726822254140874,3158.2337312282793
57,217.152073925,1149,25626,0.8652291434094919,3.5348659697246064e-05,1143.5287548981637,25589.83487734668,3212,0.07292428495541863,0.07256927267070208,3193.997734942973
58,217.69151129999997,1134,25879,0.8680312398394996,3.5079055964417034e-05,1144.0696958028275,26081.29128632535,3229,0.07349062224545369,0.07245741841584957,3230.7030057305324
59,218.230843325,1130,26310,0.868212549145114,3.4480244207510484e-05,1144.1900609300105,26585.385308840006,3255,0.07327051894095978,0.07233486083397168,3267.807628711799
60,218.77006999999998,1136,26844,0.868144571802742,3.376943254250591e-05,1144.3978346055187,27099.602731658182,3305,0.07324589918469532,0.07221480294212508,3305.9583456023283
61,219.30919132499997,1135,27479,0.8681762475955156,3.29553692527906e-05,1144.6136492332564,27615.16974336852,3350,0.07299614289493118,0.07209901250200518,3343.959319576824
62,219.84820729999998,1132,27977,0.868951283960652,3.236920409613157e-05,1144.487281705113,28134.056852929312,3370,0.07244227876714246,0.07197222745402891,3381.0899227614927
63,220.38711792499998,1138,28404,0.8691522224557424,3.187677776189182e-05,1144.6234342793502,28666.2396203759,3408,0.07236028551949443,0.07183892865523085,3419.107114543865
64,220.9259232,1146,29063,0.8692686507714266,3.113760972781554e-05,1144.8938367799733,29215.487712065395,3462,0.0721147041296208,0.07168468651885813,3458.393077985845
65,221.464623125,1143,29670,0.8701622824311823,3.0503112224600634e-05,1144.4076876033214,29774.24723096729,3491,0.07162130750336229,0.07154181681598891,3498.0067951708315
66,222.0032177,1138,30099,0.86932404321908,3.001705891437036e-05,1143.4260345647472,30334.40863892669,3507,0.07111041256814338,0.07138827705212698,3536.819407008018
67,222.54170692499997,1141,30542,0.8705973257298546,2.9611146754527213e-05,1142.5302724863311,30891.972615460687,3538,0.07097791877060174,0.07123161787378028,3575.069469297084
68,223.0800908,1141,30985,0.8704844215444587,2.9167820049070455e-05,1142.3935536478523,31450.95080296209,3583,0.07122781655983006,0.07105181221121848,3613.4593988538127
69,223.61836932499997,1136,31357,0.8703398065724872,2.8799172978143914e-05,1142.627534032459,32011.234161588553,3590,0.07067317048836516,0.07085288604481078,3651.6992457359597
70,224.1565425,1128,32038,0.8697053263836744,2.8136697715421364e-05,1142.4147319304861,32570.03959319514,3640,0.07067938466113846,0.07065371869016224,3689.109628757092
71,224.69461032499999,1128,32796,0.8700422735223692,2.7473862369659253e-05,1141.4945978391138,33126.90346327146,3697,0.07058035242765462,0.0704593040371449,3725.7242972660047
72,225.23257279999999,1135,33482,0.8700397124616915,2.6897075848198954e-05,1140.6247933135298,33677.96767763644,3732,0.06985170597777268,0.07025263624005154,3761.4090466374505
73,225.77042992499997,1133,34370,0.8700678242154535,2.6177688245493078e-05,1140.10034202358,34216.31420870169,3801,0.06984207223897552,0.07002028637813093,3795.527327912224
74,226.30818169999998,1131,35025,0.8699872642519537,2.5667884116715456e-05,1140.0395931957469,34743.591338421495,3841,0.06955996595629889,0.06977981831050799,3828.8695780198136
75,226.84582812499997,1119,35492,0.8700242014773532,2.5311267607638356e-05,1139.7495979523667,35268.87691680378,3862,0.069428807047752,0.0695341201989776,3861.6850211782084
76,227.3833692,1138,36073,0.8696880407569096,2.489446230877085e-05,1139.0719835103632,35785.85945321456,3922,0.06930618306761804,0.0692874046439409,3893.5422999387683
77,227.92080492499997,1153,36400,0.87010037851645,2.4685799600432658e-05,1138.6037735848838,36287.777435501805,3949,0.06902149568280971,0.06903847114522524,3924.157172302808
78,228.45813529999998,1170,36626,0.8693067287349536,2.4517901870909116e-05,1138.495118802216,36778.441640806566,3990,0.06914048327596371,0.06879395133652139,3954.0340891072656
79,228.99536032499998,1195,36996,0.8691277262341458,2.427663267043227e-05,1139.181906724932,37251.10641237556,4023,0.06865431719198246,0.06857070533928668,3983.9493080250204
80,229.53248,1173,37472,0.86926662631248,2.394739872482658e-05,1139.9139731364025,37695.20924596181,4018,0.06813034937213162,0.06836301362095669,4012.2209110058348
81,230.069494325,1149,38186,0.8686441253792921,2.3453414838655727e-05,1140.4550499444842,38120.19083104867,4045,0.06792108937274699,0.06814918119287579,4038.4880518244254
82,230.60640329999998,1129,38796,0.868302707705708,2.3052080274662384e-05,1141.2896781353834,38520.76407166567,4076,0.06793448056943005,0.06793911224392458,4063.284853563989
83,231.143206925,1129,39297,0.8687016218294412,2.2759946076017637e-05,1141.9727060635355,38877.46757570878,4111,0.0678701591986846,0.06775022385280269,4085.1353371536516
84,231.67990519999998,1135,39606,0.8683284847277679,2.2570988139839564e-05,1141.6889170762427,39189.08903938859,4132,0.06764525145509917,0.06760240497647323,4103.794785838784
85,232.216498125,1134,39816,0.8683608504247778,2.244870612752127e-05,1140.8992502661222,39470.205191509805,4123,0.06709918261516108,0.06746670469896562,4119.966590409669
86,232.75298569999998,1139,40188,0.868249886800152,2.2234881477122384e-05,1140.0961290176228,39725.27008539189,4149,0.06692699324613838,0.0673514112916885,4134.890801603581
87,233.289367925,1140,40578,0.867778574191436,2.2003615147609818e-05,1139.090239869511,39947.917053613135,4201,0.06735306596683366,0.0672755568420796,4148.836961199495
88,233.8256448,1132,40793,0.8676471171202086,2.1876581960117207e-05,1138.244286393781,40126.23089990636,4216,0.06746737876500147,0.06721200834230949,4159.99596819852
89,234.36181632499998,1124,40844,0.8677489292852631,2.1846649780595748e-05,1137.9143128949477,40252.37457246973,4195,0.06709106147620954,0.06716037347636176,4167.880450293244
90,234.89788249999998,1127,40784,0.8672589311593729,2.1868999953586325e-05,1137.6710910779188,40349.89395003207,4174,0.06663484285857753,0.06711581711509713,4173.94976103641
91,235.433843325,1134,40840,0.8668004592010585,2.1830465400721768e-05,1136.934721058213,40426.06720423942,4184,0.0665829194722014,0.06708758774062924,4178.620784162642
92,235.9696988,1138,41012,0.8665578153052318,2.1732402450349394e-05,1135.9991845794702,40466.09300323826,4203,0.06660981351032089,0.0670601712327977,4180.444449477824
93,236.505448925,1137,41029,0.8666098942893835,2.1723901892343918e-05,1135.0327753742788,40465.23486375604,4202,0.0665837593000341,0.06704103355920232,4179.202518743266
94,237.04109369999998,1128,41093,0.8664654382940954,2.168060648802941e-05,1133.697003329612,40427.40637386953,4201,0.06662450373771438,0.06706091298980113,4176.337448186742
95,237.576633125,1129,41079,0.8658853313998153,2.1674226067579857e-05,1132.2701986454742,40350.221590522226,4210,0.06677829051421354,0.06708806391840871,4170.779383451414
96,238.11206719999998,1142,41037,0.8659634438688039,2.1706064516074793e-05,1131.016149856147,40238.38050691898,4216,0.06672444232241391,0.06711737895932829,4162.76821672057
97,238.64739592499998,1143,41006,0.8653764850454776,2.1708764645046224e-05,1130.1644431357229,40105.97311377304,4218,0.06675445128351713,0.0671500083366203,4153.461142947665
98,239.1826193,1135,40877,0.865240351462597,2.1771434539343692e-05,1129.5445196946487,39964.06885773101,4209,0.06692538977394251,0.06718832874215437,4144.162313982118
99,239.71773732499997,1123,40678,0.8654717432609225,2.1880210928098152e-05,1129.1115087544235,39828.77129719737,4190,0.06710660691647703,0.06723670100659002,4136.144578586072
100,240.25275,1126,40177,0.8654328986505,2.2161606582430667e-05,1128.4562730752464,39694.09248227516,4155,0.06712750633818249,0.06729289716184575,4128.335500237751
101,240.787657325,1140,39712,0.8649750843904328,2.2424947744229824e-05,1127.3188294185381,39556.41475458031,4121,0.06684876922554911,0.06736291905910119,4120.484201227582
102,241.3224593,1141,39433,0.8650023747478218,2.25896368627343e-05,1126.935377924733,39431.270810210124,4113,0.06713640075604634,0.06743137793425294,4114.170558789475
103,241.85715592499997,1138,39052,0.864426750181391,2.2799671630041438e-05,1127.050057758931,39310.53253754257,4105,0.06764662572633294,0.06749359948409057,4108.333371084204
104,242.3917472,1128,38776,0.8640504083213235,2.2950765201905107e-05,1127.7025753697487,39186.12609572056,4069,0.06749820045880292,0.0675705460585795,4103.5035221635035
105,242.92623312499998,1118,38758,0.8638615542876957,2.295062577810031e-05,1129.13853088403,39070.72339124254,4060,0.0675207410391711,0.06764355566685831,4100.119980067419
106,243.46061369999998,1120,38394,0.8647030136247108,2.319855700018004e-05,1130.379442342953,38979.6280096937,4059,0.06818055902352914,0.06769996455542654,4097.688532016502
107,243.994888925,1112,38101,0.863747888775786,2.3351479866332855e-05,1130.9159437359633,38914.599605879346,4035,0.06825637564929093,0.0677544312522042,4096.665451086016
108,244.52905879999997,1104,38258,0.8628771528607923,2.3224340659438883e-05,1130.5851095154826,38871.744456272325,4050,0.06841890758270695,0.0678023185454632,4096.3816847492935
109,245.063123325,1118,38383,0.8633129275796555,2.316685703957213e-05,1130.5713832702675,38856.60114611808,4068,0.06834222826673779,0.06782803547306815,4097.3293619333745
110,245.59708249999997,1128,38153,0.8623491049005171,2.329099540582085e-05,1131.090036014384,38875.051552695804,4071,0.06854539947933076,0.06783800147098168,4100.589752882207
111,246.130936325,1133,37824,0.862505803534046,2.3507285261618547e-05,1131.4771342499046,38938.597793833775,4056,0.06871179481971101,0.0678266579226593,4106.220027633617
112,246.66468479999997,1139,37808,0.8631762817630669,2.3539673341598268e-05,1131.6421889510307,39054.910779405356,4026,0.0679590369371942,0.06780375765214151,4115.135065346815
113,247.19832792499997,1130,38119,0.8629529675416884,2.3329989119513596e-05,1131.9328863620703,39224.75990396083,4031,0.06768029843570894,0.06777823770898408,4128.082198917225
114,247.7318657,1116,38727,0.8621360146885437,2.2922443292880907e-05,1132.1649640988253,39442.28258850635,4076,0.06785043214692749,0.06774005871039245,4143.888332691487
115,248.265298125,1119,38870,0.8624878814902607,2.2846755887003276e-05,1132.2102878887185,39704.31778749161,4098,0.06806048578738276,0.06766688596526228,4161.066207615042
116,248.79862519999998,1133,38767,0.862427427307537,2.2916177586956925e-05,1132.3343224081868,40000.471267751615,4085,0.06764855623669684,0.06755375715255996,4178.845681668814
117,249.33184692499998,1136,39035,0.8621956715984717,2.2749826422820434e-05,1132.61944777909,40319.52340936298,4109,0.06763523395504516,0.0674241952724414,4197.837753969432
118,249.8649633,1142,39573,0.8614594306460737,2.2415743296975715e-05,1133.010668418289,40678.714534869774,4163,0.06771796050016364,0.06728331567824569,4219.428073115958
119,250.397974325,1159,40100,0.861591555373828,2.212556316925164e-05,1133.3184670094233,41082.6550771244,4193,0.06712895865550947,0.06713000570033122,4243.61675236124
