,x_(nm),baseline_dark,baseline_light,baseline_mirror,baseline_calibration,baseline_dark_smoothed,baseline_light_smoothed,raw_signal,calibrated_signal,calibrated_signal_smoothed,raw_signal_smoothed
0,186.23,1013,1009,0.3621226043733797,-0.09053065109334492,989.6763583356254,3726.4476159759342,1000,1.1768984642134839,,1145.125397231945
1,186.775442325,1003,998,1.18800459154587,-0.237600918309174,997.5163784462338,2793.972757082205,986,4.039215611255957,,1096.2706489465643
2,187.3207793,999,994,1.908567993433533,-0.38171359868670657,1004.8144743077038,1978.2129786086464,994,1.908567993433533,,1054.0257336800223
3,187.86601092499998,1004,1002,1.7279185264672412,-0.8639592632336206,1011.5880290835894,1275.1839470895702,1005,-0.8639592632336206,,1018.1602218052192
4,188.41113719999998,1005,1013,1.043047789334166,0.13038097366677076,1017.8544259374447,680.9013290592893,1002,-0.3911429210003123,,988.4436836950549
5,188.956158125,1010,1012,0.840365554154959,0.4201827770774795,1023.6310480328239,191.38079105211546,1004,-2.5210966624648767,,964.6456897224296
6,189.50107369999998,1017,1005,0.8202728553565946,-0.06835607127971621,1028.9352785332808,-197.36200039763798,1011,0.4101364276782973,,946.5358102602432
7,190.045883925,1031,1017,0.837733819880384,-0.059838129991456,1033.7845006023697,-489.31137875565855,1022,0.538543169923104,,933.8836156813958
8,190.59058879999998,1050,1028,0.8116271105193998,-0.03689214138724545,1038.1960974036447,-688.4516774876338,1035,0.5533821208086818,,926.4586763587872
9,191.135188325,1056,1043,0.8262856362484797,-0.06356043355757536,1042.1874521006598,-798.7672300592521,1044,0.7627252026909044,,924.0305626653177
10,191.67968249999998,1063,1063,0.8012221689422371,inf,1045.775947856969,-824.2423699362007,1046,-inf,,926.368844973887
11,192.22407132499998,1055,1049,0.7775424502505143,-0.1295904083750857,1048.9789678361267,-768.8614305841656,1043,1.5550849005010283,,933.2430936573952
12,192.7683548,1039,1034,0.7753865851703869,-0.1550773170340774,1051.8138952016866,-636.6087454688368,1033,0.9304639022044644,,944.4228790887424
13,193.312532925,1030,1032,0.7956261498651602,0.3978130749325801,1054.2981131172032,-431.4686480558994,1024,-2.3868784495954807,,959.6777716408286
14,193.8566057,1038,1038,0.7908861747409445,inf,1056.4490047462302,-157.42547181104237,1032,-inf,,978.7773416865538
15,194.400573125,1048,1047,0.7942231778648126,-0.7942231778648126,1058.283953252322,181.53644980004492,1048,-0.0,,1001.4911595988178
16,194.9444352,1058,1054,0.7947581770897779,-0.19868954427244448,1059.8203417990323,581.4327833116804,1057,0.19868954427244448,,1027.588795750521
17,195.488191925,1076,1073,0.7914877943554887,-0.2638292647851629,1061.0755535499154,1038.2791952581733,1064,3.1659511774219546,,1056.839820514563
18,196.0318433,1079,1076,0.7911116722494277,-0.2637038907498092,1062.0669716685256,1548.0913521738344,1078,0.2637038907498092,,1089.0138042638441
19,196.575389325,1061,1058,0.7900325230816138,-0.2633441743605379,1062.8119793184167,2106.8849205929755,1076,-3.9501626154080687,,1123.8803173712643
20,197.11883,1054,1057,0.798472358442206,0.26615745281406866,1063.3279596631428,2710.675567049915,1062,2.1292596225125493,,1161.2089302097231
21,197.662165325,1067,1065,0.7981102791346143,-0.39905513956730715,1063.6322958662581,3355.4789580789597,1071,-1.5962205582692286,,1200.7692131521214
22,198.2053953,1078,1066,0.8040599544843242,-0.06700499620702702,1063.7423710913167,4037.3107602144264,1072,0.4020299772421621,,1242.3307365713586
23,198.74851992499998,1068,1049,0.8074165803696804,-0.04249560949314107,1063.6755685018727,4752.186639990623,1055,0.5524429234108339,,1285.6630708403345
24,199.2915392,1067,1044,0.8060625325032217,-0.035046197065357464,1063.44927126148,5496.122263941861,1049,0.6308315471764343,,1330.5357863319498
25,199.83445312499998,1095,1068,0.8122546130835153,-0.030083504188278345,1063.0808625336724,6265.13329860234,1079,0.4813360670124535,-inf,1376.718453419077
26,200.3772617,1091,2034,0.8144257223941842,0.0008636540004180108,1063.2256676255204,6948.008493963489,1142,0.044046354021318554,-inf,1418.1945230922286
27,200.919964925,1055,6014,0.8150182986479615,0.0001643513407235252,1062.72601870935,7648.114317424937,1368,0.051441969646463394,-inf,1459.4974291603155
28,201.4625628,1039,10561,0.8232603193402961,8.645876069526319e-05,1061.7967111372645,8365.586944211485,1622,0.05040545748533844,-inf,1501.5325828444297
29,202.005055325,1038,12472,0.8194894939197722,7.167128685672312e-05,1061.2503114453123,9099.204511993303,1736,0.05002655822599274,-inf,1545.0453917415728
30,202.5474425,1049,13345,0.8269202298982968,6.725115727865134e-05,1060.753086140096,9846.84534191016,1797,0.0503038656444312,,1588.7915015062326
31,203.089724325,1057,14004,0.8298864771900701,6.40987469830903e-05,1059.8925909986433,10606.885750526424,1837,0.049997022646810434,,1632.5582459398543
32,203.63190079999998,1065,14627,0.8293789756785952,6.115462141856623e-05,1058.850687444769,11379.816235928114,1874,0.049474088727620075,,1676.9230560148264
33,204.173971925,1063,15112,0.8303112569560028,5.9101093099580246e-05,1058.2645360030601,12164.150082674345,1901,0.04952671601744824,,1722.5908401095958
34,204.71593769999998,1055,15494,0.832804584655424,5.767744197350398e-05,1057.9840086977986,12951.893429069494,1933,0.0506407940527365,inf,1768.472875942796
35,205.257798125,1050,15827,0.8371769300637781,5.6654052247667195e-05,1057.9418333370882,13736.992389408331,1963,0.05172514970212015,inf,1813.856282135461
36,205.7995532,1046,16215,0.8381556767340916,5.525451095880359e-05,1058.271852137061,14515.281342725491,1983,0.05177347676839897,inf,1858.8599968288845
37,206.34120292499998,1058,16770,0.840625124319978,5.350210821792121e-05,1058.3940066592472,15286.065845205714,2008,0.050827002807025144,inf,1903.1707399940744
38,206.88274729999998,1065,17411,0.8415937915656597,5.148622241316895e-05,1057.9699200434688,16046.404471222144,2021,0.04922082862698952,inf,1946.5637953294151
39,207.424186325,1043,17770,0.8431564976534377,5.040691682031671e-05,1057.1033545493467,16788.09003601408,2027,0.04960040615119164,inf,1988.7487372307035
40,207.96552,1037,18054,0.844165982526256,4.960721528625821e-05,1056.3460554032733,17510.76246347562,2042,0.0498552513626895,0.0375015633180591,2030.2592131191714
41,208.506748325,1049,18427,0.8476484869242688,4.877710248154384e-05,1055.692427914542,18216.44200321603,2067,0.049655090326211626,0.027665403451957962,2070.8780493329014
42,209.0478713,1068,18844,0.8491768105118729,4.7770972688561706e-05,1055.0017440938439,18901.77215791941,2114,0.04996843743223554,0.023578532027158178,2110.1657795193146
43,209.588888925,1070,19383,0.8502736512177026,4.643005794887253e-05,1054.598382749306,19561.015243833004,2145,0.04991231229503797,0.11617237030195536,2148.0914403496836
44,210.12980119999997,1048,19828,0.8513731200582484,4.533403195198341e-05,1054.5729461595758,20190.1889737023,2152,0.05004877127498968,0.13303745878552609,2184.974201001113
45,210.670608125,1042,20285,0.8534308197221572,4.4350195900959165e-05,1054.6227774128317,20778.145756415375,2186,0.050736624110697286,0.014945427408187592,2220.0524587192945
46,211.2113097,1041,20675,0.8557212941711507,4.358364541973876e-05,1054.7737208090582,21321.557113410992,2223,0.05151586888613121,0.07029793910896232,2252.9570771704475
47,211.751905925,1044,20876,0.8575135521308375,4.323888423410839e-05,1055.2768352623866,21817.698475616246,2233,0.051411033354354874,0.01685947201416653,2283.3052617272883
48,212.29239679999998,1059,21207,0.8580327959771828,4.2586499701071214e-05,1055.9852771296994,22257.23529411722,2249,0.050677934644274746,0.01825564216938405,2309.9407461097203
49,212.83278232499998,1068,21661,0.8587529108532552,4.1701204819756966e-05,1056.5068744478722,22643.85696165215,2267,0.0499997445788886,0.026226290065398755,2333.2496772293375
50,213.37306249999997,1064,22160,0.8598387128136875,4.075837660284829e-05,1056.8851616117943,22977.885886429598,2295,0.050173561598106244,0.03942068267826651,2353.406034111713
51,213.91323732499998,1065,22727,0.8611437003932625,3.975365619025309e-05,1057.7429386848876,23251.284309949948,2323,0.05001009948733839,0.05103816747787511,2370.7519762621578
52,214.45330679999998,1072,23321,0.8624756676121401,3.876469358677424e-05,1058.7961901741623,23496.959817888965,2374,0.05047163104998006,0.050980505614046975,2387.1538426690977
53,214.993270925,1077,23855,0.8630074298534857,3.7887761430041514e-05,1058.4054904980658,23817.457790662975,2414,0.050655937031965505,0.05113168819029538,2407.522888400597
54,215.5331297,1062,24370,0.8629495266956824,3.7023748356602125e-05,1057.1584180841946,24247.28073115992,2428,0.0505744402551185,0.051265864264521205,2434.0546105234084
55,216.07288312499998,1052,24883,0.8648478670709356,3.6290876046785095e-05,1056.700378264493,24715.551065708823,2465,0.05127900785410734,0.051401304580856184,2464.286642959023
56,216.61253119999998,1060,25353,0.8650803831098881,3.56102738694228e-05,1057.2236743753904,25190.25176108131,2511,0.05167050738453248,0.05155411475836442,2496.2379442342494
57,217.152073925,1066,25692,0.8652291434094919,3.513478207624023e-05,1058.3089764207368,25675.781965615945,2539,0.051753533998301855,0.05170403083894742,2529.569322068401
58,217.69151129999997,1059,25972,0.8680312398394996,3.4842501498795795e-05,1060.0780312124646,26173.384561371215,2540,0.05160174471971657,0.05183149486821764,2564.0248250243
59,218.230843325,1065,26402,0.868212549145114,3.4266588354782097e-05,1062.3311966295748,26682.203198259922,2574,0.051708281827366184,0.05195878084442959,2599.8370518018037
60,218.77006999999998,1063,26944,0.868144571802742,3.3543702785933385e-05,1064.1376701623842,27197.517361661125,2627,0.05246235115719981,0.05212973749911836,2636.8665428435024
61,219.30919132499997,1058,27549,0.8681762475955156,3.277249811617212e-05,1065.1937982740062,27712.91959047717,2667,0.05273094946892094,0.052356176613616814,2674.7643434731867
62,219.84820729999998,1057,28049,0.868951283960652,3.219291953025534e-05,1065.8902353393983,28230.893225214077,2708,0.05315051014445156,0.05260140159517281,2713.254501800668
63,220.38711792499998,1057,28534,0.8691522224557424,3.163199120922016e-05,1066.9372579220164,28760.03855126901,2743,0.05333153717874519,0.052825968684182344,2752.6081904459365
64,220.9259232,1058,29211,0.8692686507714266,3.087659044405309e-05,1068.3927608779159,29307.843280707944,2781,0.053200365335103465,0.05299194102356256,2792.373960905064
65,221.464623125,1057,29818,0.8701622824311823,3.025493836901298e-05,1069.2099934313142,29866.230265690607,2811,0.05306716189924877,0.053166746958642444,2832.6640920518607
66,222.0032177,1060,30241,0.86932404321908,2.979075573897673e-05,1069.412353620673,30427.279304173913,2852,0.0533850342842463,0.05334859604229369,2873.026999478982
67,222.54170692499997,1071,30633,0.8705973257298546,2.944987909241102e-05,1069.7580466148518,30986.203107657566,2898,0.05380492910183493,0.053510012917578176,2912.866678746915
68,223.0800908,1084,31090,0.8704844215444587,2.901034531575214e-05,1070.8264060340914,31544.00754263909,2939,0.05381419056072022,0.05367834910747686,2953.761489501404
69,223.61836932499997,1082,31525,0.8703398065724872,2.8589160285533202e-05,1072.3805522208677,32103.83530770737,2971,0.054004923779372216,0.05384013558260818,2995.3198939952767
70,224.1565425,1066,32189,0.8697053263836744,2.7944135410586202e-05,1073.544021382117,32663.790414278297,3006,0.05421162269653723,0.053993646800013353,3036.3740515073378
71,224.69461032499999,1055,32874,0.8700422735223692,2.7343482621149915e-05,1074.1227434369769,33222.43944370137,3031,0.05403072165939223,0.054164227907784995,3077.4310176900362
72,225.23257279999999,1055,33550,0.8700397124616915,2.6774571856029898e-05,1074.1120523680963,33775.114906339244,3084,0.05432560629588466,0.05437549761187804,3119.077374345905
73,225.77042992499997,1061,34440,0.8700678242154535,2.6066323862771607e-05,1073.7221454619378,34315.45500464271,3167,0.054895678054997,0.05461522486447285,3161.2137081246983
74,226.30818169999998,1060,35079,0.8699872642519537,2.557356960086874e-05,1073.7579107114339,34843.894108586166,3214,0.05508546892027127,0.054838926270657486,3203.11243742774
75,226.84582812499997,1066,35566,0.8700242014773532,2.521809279644502e-05,1073.7199030555412,35366.51722575755,3256,0.055227623224214595,0.05504314301042119,3244.565584724394
76,227.3833692,1085,36201,0.8696880407569096,2.476614764656879e-05,1073.3004598065436,35881.21610908445,3318,0.055302807694788104,0.05525893410443411,3285.9817436407893
77,227.92080492499997,1086,36591,0.87010037851645,2.450641820916631e-05,1073.0964234750297,36383.3901787123,3351,0.055507037243761694,0.05545834679364629,3326.553897030446
78,228.45813529999998,1109,36799,0.8693067287349536,2.435715126744056e-05,1073.2542299938639,36874.02548189017,3400,0.055802233553706324,0.05566363685605093,3367.055811003582
79,228.99536032499998,1131,37048,0.8691277262341458,2.419822719698599e-05,1073.7303449681554,37347.18906430426,3443,0.055946301279431614,0.055871015280596695,3407.0727536296886
80,229.53248,1110,37565,0.86926662631248,2.3844921857426414e-05,1073.914697954633,37795.6578857951,3457,0.05596403159937979,0.05607237857478268,3445.3525787672897
81,230.069494325,1091,38334,0.8686441253792921,2.3323688354302612e-05,1073.803846066708,38226.80062968511,3494,0.05604682311538917,0.056292503104312594,3483.100840336067
82,230.60640329999998,1082,38821,0.868302707705708,2.3008100577803018e-05,1073.9076083263285,38633.674601915496,3525,0.056208789711572775,0.05651759932675389,3519.734172914381
83,231.143206925,1068,39255,0.8687016218294412,2.2748621830189364e-05,1073.9806790640578,38998.7060182556,3563,0.056757811466322465,0.05673390923663566,3553.3560216538767
84,231.67990519999998,1048,39573,0.8683284847277679,2.2539350674309356e-05,1073.4292282950712,39320.13893859355,3582,0.05711471460869991,0.0569459085420739,3583.598586604384
85,232.216498125,1051,39909,0.8683608504247778,2.234702893676406e-05,1073.3530997304376,39612.34166119202,3608,0.057141352991305704,0.057164806453043615,3612.860268635687
86,232.75298569999998,1068,40374,0.868249886800152,2.2089499994915586e-05,1073.3388525221205,39878.58597023638,3643,0.05688046248690763,0.05740125244261561,3641.245441572786
87,233.289367925,1074,40777,0.867778574191436,2.1856750728948342e-05,1073.1182359736142,40111.91682710743,3676,0.05687126539672359,0.05764564276983038,3667.7424403723053
88,233.8256448,1073,41023,0.8676471171202086,2.171832583529934e-05,1073.0330018799766,40303.20738861504,3702,0.05709747862100196,0.05789458981416799,3691.65969784133
89,234.36181632499998,1066,41060,0.8677489292852631,2.16969777787984e-05,1073.0872726448865,40444.85548936478,3727,0.05773565786938254,0.05815285405881093,3712.6729031234418
90,234.89788249999998,1063,41003,0.8672589311593729,2.1714044345502577e-05,1073.0741126639127,40558.18534961076,3733,0.05797649840249188,0.05841411392856176,3732.0590726856067
91,235.433843325,1073,41020,0.8668004592010585,2.1698762340127133e-05,1072.7628711861898,40652.17977757063,3755,0.05819608059622097,0.058669543073794725,3749.8074475072326
92,235.9696988,1077,41195,0.8665578153052318,2.160022471970766e-05,1072.5921764932182,40710.74472807914,3805,0.058925413035362494,0.05892417012580638,3765.3171532763326
93,236.505448925,1071,41311,0.8666098942893835,2.1536031170213307e-05,1072.4528528392284,40728.64757978585,3824,0.05928869381159724,0.059187662298187414,3778.2924868059704
94,237.04109369999998,1056,41382,0.8664654382940954,2.1486520812728648e-05,1072.1636730163557,40712.8780946333,3838,0.0597755009010111,0.059463184860414874,3789.5076672177574
95,237.576633125,1042,41355,0.8658853313998153,2.1479059643286663e-05,1071.9034179709415,40657.882352940396,3862,0.06057094819406839,0.05975144844398827,3798.683707445169
96,238.11206719999998,1047,41304,0.8659634438688039,2.151087870106575e-05,1071.1592561552718,40567.263335522104,3892,0.061198449904532055,0.06005315919910659,3805.520487440186
97,238.64739592499998,1058,41256,0.8653764850454776,2.1527849272239355e-05,1070.1736845681464,40455.16881469491,3903,0.061246731179520966,0.06035152739338039,3810.4229767377915
98,239.1826193,1068,41116,0.865240351462597,2.1605082687340116e-05,1069.1363564293438,40333.12120319749,3881,0.060775097599487744,0.060654544117100126,3814.9074724228585
99,239.71773732499997,1065,40959,0.8654717432609225,2.1694283432619503e-05,1068.2889080160162,40218.26770708206,3877,0.06100432501252604,0.06095886951923393,3820.1787129945587
100,240.25275,1076,40593,0.8654328986505,2.1900268204835894e-05,1067.556433894292,40104.97635280451,3872,0.06123314990072116,0.06125986909557481,3825.4680740219887
101,240.787657325,1087,40219,0.8649750843904328,2.2104034661924583e-05,1066.9302135948515,39987.71874787575,3853,0.0611397598748834,0.061576216775958946,3831.3527373212705
102,241.3224593,1083,39974,0.8650023747478218,2.2241710800643384e-05,1066.891322566742,39882.5071236034,3853,0.061609538917782175,0.06189866987277115,3839.0148134724855
103,241.85715592499997,1080,39648,0.864426750181391,2.241305616525075e-05,1067.3361571043308,39781.80778726509,3845,0.061972100296918325,0.06222054007849905,3847.4794672585276
104,242.3917472,1077,39391,0.8640504083213235,2.2551819395555762e-05,1068.3441301048515,39677.29146752964,3836,0.06222046971233835,0.06254522631257156,3856.5295929691893
105,242.92623312499998,1073,39310,0.8638615542876957,2.2592294225166613e-05,1070.087385897735,39578.47126775162,3837,0.06244510123836052,0.06285310421302212,3866.036490067651
106,243.46061369999998,1071,38917,0.8647030136247108,2.284793673372908e-05,1071.7419420598221,39503.20365127107,3812,0.06262619458715141,0.06314623717873095,3876.5333982648926
107,243.994888925,1069,38639,0.863747888775786,2.2990361692195527e-05,1073.0188905750774,39453.57937892062,3811,0.06303957176000013,0.0634294732039246,3888.0728215813883
108,244.52905879999997,1075,38790,0.8628771528607923,2.2878885134848e-05,1073.9369861151802,39418.58814469108,3858,0.06367193733028198,0.06371374396283813,3900.599605880013
109,245.063123325,1090,38930,0.8633129275796555,2.2814823667538463e-05,1074.417042288593,39405.42091553527,3891,0.06390432109277523,0.06401209976351775,3915.074497723542
110,245.59708249999997,1081,38694,0.8623491049005171,2.2926889769508337e-05,1074.1324831819313,39425.22206618421,3870,0.06394309556715876,0.06430697345136405,3931.172597340748
111,246.130936325,1077,38409,0.862505803534046,2.3103659153917445e-05,1073.668622165827,39492.5915649271,3860,0.06429748342535226,0.06459200130561596,3950.334752768957
112,246.66468479999997,1078,38420,0.8631762817630669,2.311542718020103e-05,1073.5431380099003,39610.48907109938,3871,0.06456138811430148,0.06485555865503934,3972.656413508724
113,247.19832792499997,1070,38687,0.8629529675416884,2.2940504759595087e-05,1073.221998233235,39778.895762077664,3910,0.06515103351725005,0.06509790274942874,3997.67206505236
114,247.7318657,1061,39297,0.8621360146885437,2.2547756425581747e-05,1072.618655009153,39994.919930235475,3961,0.06538849363418707,0.06532791506123509,4025.500147228626
115,248.265298125,1059,39486,0.8624878814902607,2.2444840385412878e-05,1072.3221590522796,40250.756642278786,3976,0.06547159940424936,0.06555505969638994,4056.5697524291954
116,248.79862519999998,1063,39353,0.862427427307537,2.2523568224276233e-05,1072.3641079072934,40535.64914267516,3983,0.0657688192148866,0.06576047624875721,4089.152687490012
117,249.33184692499998,1056,39622,0.8621956715984717,2.235636756724762e-05,1072.6883055108628,40840.47464268647,4024,0.06635369893959094,0.06594099802815272,4122.423814808863
118,249.8649633,1062,40120,0.8614594306460737,2.2055902264480355e-05,1073.1274321048968,41182.763278895676,4090,0.06678527205684652,0.06612310286833348,4158.772701533364
119,250.397974325,1081,40547,0.861591555373828,2.1831235883388944e-05,1073.3299055471039,41570.2842419979,4135,0.06667259438786984,0.06628616279727367,4197.238148089345
