,x_(nm),baseline_dark,baseline_light,baseline_dark_smoothed,baseline_light_smoothed,raw_signal,calibrated_signal,calibrated_signal_smoothed,raw_signal_smoothed
0,186.23,1305,1297,1293.855260536725,4487.912714900529,1289,2.0,,1289.3025697942444
1,186.775442325,1297,1296,1297.0909815304926,3387.202622600425,1300,-3.0,,1290.7213694185937
2,187.3207793,1299,1300,1300.2542485789668,2425.833157504275,1298,-1.0,,1292.2981686143244
3,187.86601092499998,1297,1299,1303.3426274718884,1598.871275425205,1287,-5.0,,1294.0229364024267
4,188.41113719999998,1306,1299,1306.3536839989986,901.383932176343,1285,3.0,,1295.8856418038906
5,188.956158125,1313,1299,1309.2849839500386,328.43808357081434,1283,2.142857142857143,,1297.8762538397066
6,189.50107369999998,1303,1308,1312.1340931147497,-124.89931457825332,1290,-2.6,,1299.9847415308643
7,190.045883925,1311,1318,1314.8985772828728,-463.56130645773374,1304,-1.0,,1302.2010738983543
8,190.59058879999998,1327,1330,1317.576002244149,-692.4809362544993,1316,-3.6666666666666665,,1304.5152199631664
9,191.135188325,1328,1338,1320.1639337883198,-816.5912481554251,1321,-0.7,,1306.9171487462906
10,191.67968249999998,1333,1344,1322.659937705126,-840.8252863473817,1316,-1.5454545454545454,,1309.3968292687173
11,192.22407132499998,1334,1343,1325.0615797843088,-770.1160950172443,1306,-3.111111111111111,,1311.9442305514365
12,192.7683548,1324,1335,1327.3664258156098,-609.3967183518871,1312,-1.0909090909090908,,1314.5493216154384
13,193.312532925,1312,1333,1329.5720415887695,-363.6002005381815,1312,0.0,,1317.202071481713
14,193.8566057,1307,1338,1331.6759928935294,-37.659585762999995,1319,0.3870967741935484,,1319.8924491712503
15,194.400573125,1313,1330,1333.6758455196307,363.49208178678145,1338,1.4705882352941178,,1322.6104237050404
16,194.9444352,1323,1333,1335.5691652568144,834.9217579242904,1343,2.0,,1325.3459641040738
17,195.488191925,1335,1349,1337.3535178948216,1371.6963984626555,1342,0.5,,1328.0890393893403
18,196.0318433,1348,1364,1339.0264692233936,1968.8829592150023,1344,-0.25,,1330.82961858183
19,196.575389325,1344,1361,1340.5855850322714,2621.5483959944527,1339,-0.29411764705882354,,1333.5576707025332
20,197.11883,1340,1351,1342.0284311111964,3324.7596646141465,1324,-1.4545454545454546,,1336.2631647724397
21,197.662165325,1351,1351,1343.3525732499097,4073.5837208871926,1321,-inf,,1338.93606981254
22,198.2053953,1358,1354,1344.5555772381522,4863.0875206267365,1317,10.25,,1341.5663548438238
23,198.74851992499998,1348,1346,1345.6350088656652,5688.33801964589,1318,15.0,,1344.1439888872815
24,199.2915392,1344,1343,1346.58843392219,6544.402173757786,1333,11.0,,1346.658940963903
25,199.83445312499998,1368,1367,1347.4134181974418,7426.3469387753685,1358,10.0,-inf,1349.1011800946535
26,200.3772617,1373,2483,1348.1972185100196,8198.811728464814,1350,-0.02072072072072072,-inf,1351.190242134564
27,200.919964925,1353,7061,1348.3256245894327,8985.32879566904,1341,-0.002102312543798178,-inf,1353.2482275928983
28,201.4625628,1352,12461,1347.7891911481317,9787.349135880579,1357,0.0004500855162480871,-inf,1354.5742825431798
29,202.005055325,1349,14706,1347.2334820720484,10604.425037939502,1368,0.001422475106685633,-inf,1355.929398174338
30,202.5474425,1348,15691,1347.0642823166747,11433.136469681993,1372,0.0016732901066722444,-inf,1357.413191691745
31,203.089724325,1340,16395,1346.8579129764855,12270.753833608682,1369,0.0019262703420790436,-inf,1358.174613241497
32,203.63190079999998,1345,17097,1345.795578608776,13117.529185258758,1370,0.0015871000507872016,-inf,1358.5580420847323
33,204.173971925,1351,17594,1344.9575075312887,13971.741149289635,1366,0.0009234747275749553,-inf,1359.6923146616878
34,204.71593769999998,1352,17916,1345.0756529026448,14823.62135042668,1369,0.001026322144409563,-inf,1361.3027022129345
35,205.257798125,1359,18182,1345.0804321728433,15664.981426532579,1384,0.0014860607501634667,-inf,1363.119006092977
36,205.7995532,1348,18569,1344.9789576207581,16490.38793630628,1379,0.001800127751001684,-inf,1364.7474008471054
37,206.34120292499998,1340,19153,1344.9437133343645,17303.072549774293,1377,0.0020771346769213497,-inf,1365.9896033884988
38,206.88274729999998,1340,19759,1344.3666447710903,18101.460757887715,1369,0.0015744611542429013,-inf,1367.1856667194918
39,207.424186325,1335,20057,1343.022786473054,18874.06478062887,1355,0.0010682619378271552,-inf,1367.807741964684
40,207.96552,1324,20262,1341.2573784230417,19619.56413508762,1355,0.0016369204773471328,-inf,1368.586400597949
41,208.506748325,1318,20562,1339.7141951119813,20339.738182064888,1363,0.002338391186863438,inf,1369.7201748623716
42,209.0478713,1330,20957,1338.546241137939,21029.136990644907,1372,0.0021399093086054925,inf,1370.7585902285182
43,209.588888925,1343,21452,1337.6761874560889,21682.575777480386,1373,0.001491869312248247,inf,1371.559265215494
44,210.12980119999997,1351,21809,1337.4427733357238,22297.529592968836,1369,0.0008798514028741812,inf,1372.3154318330842
45,210.670608125,1349,22197,1337.1605245871679,22860.639357629403,1366,0.0008154259401381427,inf,1372.922829509136
46,211.2113097,1335,22568,1336.764411424922,23370.077261092665,1359,0.0011303160175198982,inf,1372.9292849214896
47,211.751905925,1322,22740,1336.840743844682,23821.332986024143,1359,0.0017275189093286022,-0.8676807068641593,1372.924573603
48,212.29239679999998,1319,22994,1337.0489025798745,24204.184896599687,1369,0.002306805074971165,-0.7873201674310166,1372.418537226185
49,212.83278232499998,1321,23382,1337.109742009986,24524.855829123633,1362,0.0018584832963147637,-0.5019574590824994,1371.58832589637
50,213.37306249999997,1330,23806,1337.1578518199474,24783.98686266912,1359,0.0012902651717387435,-0.2643681234827022,1371.0586423248285
51,213.91323732499998,1326,24294,1337.5377245237462,24974.04958209651,1364,0.0016544757924068269,0.0020765801697338435,1370.7621690185247
52,214.45330679999998,1333,24914,1337.9839180955144,25132.527192008398,1372,0.0016538738815147789,0.0014792889113459042,1370.062198464265
53,214.993270925,1352,25419,1337.311422682255,25375.412036512233,1394,0.0017451281838201686,0.0013628709845168157,1368.5332397109523
54,215.5331297,1346,25840,1336.397789304375,25748.20292645311,1380,0.0013880950436841676,0.0013076180484625339,1367.0872499943114
55,216.07288312499998,1336,26273,1336.0800471131593,26171.436159368903,1367,0.0012431326943898625,0.001283216482019596,1366.781761761282
56,216.61253119999998,1339,26690,1336.444653333006,26607.243335069365,1382,0.001696185554810461,0.0012683582489635943,1367.3503816620726
57,217.152073925,1354,26983,1336.9539060907125,27057.05993340681,1397,0.0016777868820476805,0.0012585551063781454,1368.0602052141348
58,217.69151129999997,1351,27189,1337.6930847810565,27526.49448458576,1382,0.0011997832649585881,0.0012322472237378838,1368.5819837368645
59,218.230843325,1331,27591,1338.189290810638,28014.811728464432,1374,0.0016374714394516376,0.001193938563777526,1368.88237559172
60,218.77006999999998,1332,28162,1338.448458628709,28516.653536885904,1368,0.001341781587774879,0.001170097488952304,1369.5084826383122
61,219.30919132499997,1338,28832,1339.216562096511,29024.412059162732,1364,0.0009456608714628646,0.0011557931097721152,1370.7433010939963
62,219.84820729999998,1335,29285,1339.6496862895845,29539.10965140716,1359,0.0008586762075134168,0.0011604533856816156,1372.163287956666
63,220.38711792499998,1341,29649,1339.8814922195036,30071.284785611777,1357,0.0005652112477038293,0.0011731924101215142,1373.48852748644
64,220.9259232,1352,30288,1340.0727083285885,30628.7006953719,1368,0.000552944429084877,0.0011691653025253782,1374.414029762822
65,221.464623125,1358,30877,1340.2597340822865,31200.96280776402,1362,0.00013550594532335105,0.0011430245967153857,1374.8067679901887
66,222.0032177,1353,31261,1340.190785748236,31777.087929510817,1363,0.00033435870001337435,0.001127722666091689,1375.04645631835
67,222.54170692499997,1347,31690,1339.8280595256713,32353.01868671935,1368,0.0006920871370662097,0.0011370924256359936,1375.4786518380674
68,223.0800908,1347,32165,1339.446148270603,32931.94239960072,1373,0.0008436627944707638,0.0011520764490693673,1376.119753561776
69,223.61836932499997,1338,32578,1339.3039479942663,33511.51577612112,1375,0.0011843790012804097,0.0011547424848526457,1376.820131826289
70,224.1565425,1335,33298,1339.3970871367162,34085.058076059955,1373,0.0011888746362982198,0.0011480964167570476,1377.6831864821138
71,224.69461032499999,1333,33962,1339.7062900631695,34650.284196696884,1374,0.0012565509209598823,0.0011246940147283835,1378.2291784638119
72,225.23257279999999,1326,34672,1339.9320709415585,35201.76182925933,1364,0.0011395669645534697,0.0010888622282636791,1378.1790527531505
73,225.77042992499997,1328,35640,1339.8310720514364,35733.04858547124,1368,0.0011657729074376311,0.001068439590754267,1378.0972388955317
74,226.30818169999998,1322,36280,1339.4314480508929,36236.19595007745,1371,0.0014016820184221065,0.0010760668668888993,1378.3770187319947
75,226.84582812499997,1315,36742,1338.7232100387068,36713.588371196834,1368,0.0014960340982866176,0.0010812314911366578,1378.3403927608515
76,227.3833692,1327,37318,1337.7703232236033,37160.0994360001,1382,0.0015281598177322108,0.001092420524276228,1378.2973793290637
77,227.92080492499997,1334,37640,1336.5798772338867,37570.57704591198,1388,0.001487357461576599,0.0011154523794558273,1378.239031461615
78,228.45813529999998,1358,37833,1336.0628100296467,37944.3223629067,1408,0.0013708019191226869,0.0011074668370129443,1378.0075199891012
79,228.99536032499998,1373,38091,1336.337674692493,38269.58424879312,1426,0.001443433738221036,0.001108376027697669,1378.7603116718121
80,229.53248,1357,38502,1336.339056377242,38536.50909420298,1405,0.0012922331403957463,0.0011181176517494602,1379.409023986927
81,230.069494325,1336,39175,1336.004643366755,38748.43330539689,1383,0.0012421047067840058,0.0011150741852053656,1379.3760221069294
82,230.60640329999998,1322,39612,1335.7271738883976,38897.58191578443,1376,0.001410289892922434,0.0011281662537832335,1379.7561439669942
83,231.143206925,1316,39886,1335.937189970302,38969.02622935892,1384,0.0017630282603059372,0.001152498406501443,1380.8020793222686
84,231.67990519999998,1329,39956,1335.9471335703838,38959.79295114197,1389,0.0015533176275662102,0.0011699952923318686,1381.3644476658324
85,232.216498125,1340,39947,1335.116423928036,38878.95179958701,1382,0.0010878856165980264,0.0012056746693241468,1381.4740990735654
86,232.75298569999998,1333,40036,1334.3807107748507,38730.77893043935,1378,0.0011627005658476088,0.0012308021772468346,1381.3582867108842
87,233.289367925,1336,40125,1333.996828920222,38514.688396112426,1368,0.0008249761530330764,0.0012597764300917374,1381.5121293800273
88,233.8256448,1336,39978,1333.643366780649,38221.542073432414,1369,0.0008539930645411728,0.0012779342978561155,1381.3434732383255
89,234.36181632499998,1338,39484,1333.3769960814257,37846.48687399415,1374,0.0009437424631678289,0.0012994429466710007,1381.1197082606361
90,234.89788249999998,1333,38862,1333.3248318194949,37406.18310720443,1376,0.0011457805963388313,0.0013407791135849223,1381.3830664340944
91,235.433843325,1328,38309,1333.3642891118454,36907.26265600509,1378,0.0013520456450609774,0.0013556752606974831,1380.949466579058
92,235.9696988,1327,37795,1333.4539853677063,36341.02679562321,1377,0.0013710650433256554,0.001359477605751394,1380.2211148610124
93,236.505448925,1336,37084,1333.414414822507,35708.94525357244,1378,0.0011748909029875797,0.0013624435946961021,1379.2729846655382
94,237.04109369999998,1341,36377,1332.909148565061,35019.517656118376,1377,0.0010275145564562164,0.0013961804828160845,1378.4410745429982
95,237.576633125,1344,35580,1332.0811796416424,34273.03241296453,1366,0.0006425984343965416,0.0014653123338247112,1378.0722100160556
96,238.11206719999998,1338,34694,1331.4611882488591,33479.694670320314,1371,0.0009893272574649239,0.0015203747052695163,1377.5007587940572
97,238.64739592499998,1327,33777,1331.1647149425553,32653.04208475781,1382,0.001694915254237288,0.0015623028147714023,1376.872907653601
98,239.1826193,1321,32646,1330.9050714625218,31810.18786382416,1381,0.0019154030327214685,0.0016000343950102788,1376.1045776801022
99,239.71773732499997,1322,31621,1330.9387981607483,30970.10822442125,1377,0.0018152414271098056,0.0016331862745065612,1375.4852658044085
100,240.25275,1329,30429,1330.4019117080543,30130.01596865103,1379,0.001718213058419244,0.0016881934853590816,1374.9440077917695
101,240.787657325,1344,29239,1329.5276676708165,29294.027656344995,1373,0.0010396128338411902,0.0017504330108661277,1374.3070511223095
102,241.3224593,1348,28108,1329.1910575550721,28477.381843302817,1375,0.001008968609865471,0.001808188789640725,1374.1103535753662
103,241.85715592499997,1331,26992,1329.0340211556068,27686.382228362516,1388,0.0022212696309574843,0.0018631682280971517,1374.047271738858
104,242.3917472,1322,26052,1329.5639085822756,26917.585494574672,1379,0.0023048928427011725,0.0019119473213391643,1374.4800561733864
105,242.92623312499998,1325,25280,1330.592470950619,26186.636843416112,1370,0.001878522229179712,0.001966058084607271,1375.662461210873
106,243.46061369999998,1325,24326,1331.6066275566575,25517.29418559828,1379,0.0023477240119994785,0.0020084121312562986,1376.5042469817852
107,243.994888925,1324,23548,1331.9821966522202,24919.18491925024,1380,0.0025197984161267097,0.002050469544414394,1376.802940043916
108,244.52905879999997,1322,23128,1331.7056331966496,24388.670638066076,1375,0.002430523709070898,0.002105011060955827,1377.0388004258043
109,245.063123325,1327,22719,1331.2332782169215,23936.09803166504,1379,0.0024308152580403888,0.0021641105759147633,1377.3586717705684
110,245.59708249999997,1336,22202,1330.9451403202534,23574.6222564493,1388,0.0024920923991181825,0.002216808150909211,1377.7724297265813
111,246.130936325,1333,21751,1330.8523635869187,23320.76644997577,1391,0.0028406308159467136,0.00225903732763954,1378.223017508864
112,246.66468479999997,1326,21523,1330.815760266345,23182.597725882366,1377,0.0025251274941823043,0.0022966752833987413,1378.7533805974956
113,247.19832792499997,1320,21532,1331.0783709710045,23165.00530023286,1380,0.002968533544429052,0.0023163579359029764,1379.0862760198154
114,247.7318657,1321,21781,1331.0690615868734,23266.097102991695,1376,0.002688172043010753,0.002334961717335307,1379.371038981604
115,248.265298125,1325,21939,1331.1232870506437,23481.619379826956,1366,0.001988939555641797,0.002353251253309683,1379.9804752089253
116,248.79862519999998,1331,22031,1331.330041450517,23802.37482162631,1380,0.002367149758454106,0.0023732058480879265,1381.0244626152082
117,249.33184692499998,1328,22423,1331.449319350356,24216.468323177865,1389,0.002891680493007822,0.0023989794898272377,1382.3732813880006
118,249.8649633,1329,23058,1331.5115178146475,24739.647240027614,1402,0.003359565557549818,0.002428817476429266,1384.128428729956
119,250.397974325,1349,23734,1331.429885161586,25377.013545040172,1406,0.0025463480008934554,0.0024535140216920006,1385.9222632448939
120,250.93087999999997,1357,24645,1331.366531518242,26130.15039978205,1395,0.0016317416695293713,0.002468215614817415,1387.7109107793794
121,251.46368032499998,1352,25901,1331.809599311397,26988.44562730701,1402,0.0020367428408489146,0.002467901787170016,1389.8644816416868
122,251.99637529999998,1342,27072,1332.1619289224868,27927.965367278455,1408,0.0025650991061018265,0.002484642059644709,1392.9620149946502
123,252.52896492499997,1334,28113,1332.280074293843,28942.027067430197,1405,0.002651331267037604,0.0025251651152823555,1396.93055335339
124,253.06144919999997,1324,29191,1332.2489750616971,30023.293800538508,1405,0.002906663795887609,0.0025740361915013834,1401.292826564561
125,253.593828125,1335,30473,1332.326281455953,31177.155337606146,1407,0.0024710000686388907,0.0026236315101121023,1406.2093592153572
126,254.1261017,1337,31850,1332.6817821467953,32391.627307526163,1409,0.0023596499852521877,0.0026778102812858163,1412.103762259594
127,254.65826992499998,1328,33234,1333.2678203356559,33644.66712722761,1411,0.0026013915877891305,0.0027201075099856473,1418.4334186504518
128,255.19033279999996,1327,34532,1333.6714081858904,34923.08933384608,1418,0.002740551121819003,0.002764491296149615,1425.0855512015853
129,255.722290325,1329,36180,1333.7160751092633,36223.16815782847,1431,0.00292674528707928,0.0028487884896030574,1432.895082561299
130,256.2541425,1333,37733,1333.634125348227,37539.96142607915,1439,0.002912087912087912,0.0029520751585025615,1441.7845251307792
131,256.78588932499997,1323,38976,1333.682076604201,38858.93852635319,1446,0.00326667197832842,0.003058042249544428,1451.494326032272
132,257.3175308,1325,40531,1333.7122471629905,40157.50302385028,1456,0.0033413253073509156,0.0031899409829552546,1462.2287481029866
133,257.849066925,1332,42407,1333.5028199958974,41420.40453917336,1463,0.003189287888009738,0.003345903116682725,1473.6886452694002
134,258.3804977,1330,44174,1333.317651588912,42652.34567034279,1482,0.0035477546447577257,0.003520387519373467,1486.1366282361716
135,258.91182312499996,1335,45605,1333.5100455276197,43855.45371356006,1502,0.0037723063022362772,0.0037154503526882535,1500.161770368496
136,259.4430432,1341,46597,1333.9454574282286,45013.27389068747,1514,0.003822697542867244,0.003934828309090357,1515.6863349112937
137,259.974157925,1334,47562,1334.3142313528926,46118.722236063346,1528,0.004196590810764039,0.004198934211075951,1533.1615665133684
138,260.5051673,1327,48508,1334.35729008582,47174.119436452915,1546,0.00464169898899981,0.004496679404940725,1552.4812113524358
139,261.03607132499997,1337,49391,1334.29500101925,48164.00944528663,1572,0.004890331710159404,0.004836741385224163,1573.2957711386139
140,261.56687,1339,50091,1334.2085437948508,49086.60196153839,1593,0.005210042664916311,0.0051962640448496265,1595.119980067468
141,262.097563325,1330,50935,1334.1345217331962,49939.82853518671,1610,0.005644592279004133,0.005564696641470899,1618.0733878456733
142,262.62815129999996,1327,52255,1333.840539989555,50709.09877913332,1634,0.006028118127552624,0.0059819177788630875,1642.8264739857893
143,263.158633925,1326,53079,1333.323268930188,51401.52741851359,1654,0.00633779684269511,0.006445190991429107,1669.2019977802122
144,263.6890112,1340,53409,1332.9864323087472,52017.04527848774,1692,0.006760260423668594,0.006959583618993401,1697.7545810776815
145,264.219283125,1348,53463,1333.4202813200495,52539.81970146448,1735,0.007425885061882375,0.007496727127921066,1728.2425649504758
146,264.7494497,1338,53519,1334.0060250515044,52981.10410201715,1758,0.008048906690174584,0.008055761136529683,1760.3798274026256
147,265.27951092499995,1338,54052,1334.3324197603313,53362.63552968255,1778,0.008346928709640702,0.008685281063137942,1795.5501823370512
148,265.8094668,1336,54557,1334.799021495365,53676.63020679867,1810,0.008906258807613535,0.00935907947016897,1832.6324945072022
149,266.33931732499997,1334,54811,1335.1953158621682,53906.30317787389,1851,0.009667707612618509,0.010055874300143026,1870.198804049886
150,266.8690625,1329,54613,1335.1198894651943,54045.349928649666,1887,0.010472186772764807,0.010808284657303345,1908.856485990586
151,267.398702325,1324,54201,1335.4122403678195,54109.8877664263,1917,0.011214705826729959,0.01159535433123696,1949.165507712482
152,267.9282368,1331,54069,1335.650139300978,54115.52710140556,1960,0.011926883840873754,0.012419080102096235,1991.0817912070108
153,268.457665925,1345,54006,1335.6004439511398,54058.59491721113,2020,0.012817834830329845,0.013289507542532863,2034.343541190022
154,268.9869897,1344,53622,1335.775374300638,53932.62737547745,2070,0.013887294846780673,0.014209662416162883,2079.23244014583
155,269.516208125,1340,53086,1336.3495209404261,53757.070465921184,2104,0.014764426235844317,0.015176849536931164,2125.996081451408
156,270.0453212,1338,52750,1337.1638995220474,53531.246121088916,2147,0.015735625923908814,0.016183505985879705,2173.994722417227
