,x_(nm),baseline_dark,baseline_light,baseline_mirror,baseline_calibration,baseline_dark_smoothed,baseline_light_smoothed,raw_signal,calibrated_signal,calibrated_signal_smoothed,raw_signal_smoothed
0,186.23,1285,1296,0.3621226043733797,0.03292023676121633,1259.9890656472226,4200.683457127419,1289,0.13168094704486533,,1536.011933559104
1,186.775442325,1277,1293,1.18800459154587,0.07425028697161687,1266.8757025274224,3200.7946327442532,1283,0.4455017218297012,,1451.358995228474
2,187.3207793,1282,1294,1.908567993433533,0.15904733278612773,1273.3110702110223,2325.866411354099,1275,-1.1133313295028942,,1377.7390955995368
3,187.86601092499998,1284,1290,1.7279185264672412,0.28798642107787353,1279.3089533184664,1571.6346186370106,1281,-0.8639592632336206,,1314.763890761917
4,188.41113719999998,1278,1272,1.043047789334166,-0.17384129822236102,1284.8831364701982,933.8350802730429,1294,-2.7814607715577764,,1262.04503680524
5,188.956158125,1268,1271,0.840365554154959,0.2801218513849863,1290.0474042866622,408.20362194224936,1299,8.683777392934575,,1219.1941898191305
6,189.50107369999998,1268,1277,0.8202728553565946,0.09114142837295496,1294.8155413883019,-9.523930675315569,1297,2.6431014228156937,,1185.8230058932136
7,190.045883925,1285,1284,0.837733819880384,-0.837733819880384,1299.2013323955612,-323.61175189959795,1305,-16.75467639760768,,1161.5431411171144
8,190.59058879999998,1302,1292,0.8116271105193998,-0.08116271105193998,1303.218561928884,-538.3240160505411,1314,-0.9739525326232797,,1145.966251580458
9,191.135188325,1315,1300,0.8262856362484797,-0.05508570908323198,1306.8810146087142,-657.9248974480934,1323,-0.44068567266585584,,1138.7039933728693
10,191.67968249999998,1318,1315,0.8012221689422371,-0.26707405631407904,1310.2024750554958,-686.6785704121994,1330,-3.2048886757689488,,1139.368022583973
11,192.22407132499998,1308,1312,0.7775424502505143,0.19438561256262857,1313.1967278896725,-628.8492092628048,1324,3.110169801002057,,1147.5699953033945
12,192.7683548,1303,1300,0.7753865851703869,-0.25846219505679563,1315.8775577316883,-488.70098831985524,1317,-3.618470730795139,,1162.9215676207589
13,193.312532925,1299,1295,0.7956261498651602,-0.19890653746629006,1318.258749201987,-270.49808190329804,1307,-1.5912522997303205,,1185.0343956256909
14,193.8566057,1303,1303,0.7908861747409445,inf,1320.3540869210128,21.495335666924802,1312,inf,,1213.5201354078158
15,194.400573125,1312,1309,0.7942231778648126,-0.26474105928827085,1322.1773555092093,383.01509007086224,1320,-2.117928474306167,,1247.990443056758
16,194.9444352,1319,1306,0.7947581770897779,-0.061135244391521376,1323.7423395870203,809.7970069885741,1327,-0.489081955132171,,1288.0569746621434
17,195.488191925,1330,1318,0.7914877943554887,-0.06595731619629072,1325.06282377489,1297.5769121001103,1339,-0.5936158457666165,,1333.3313863135963
18,196.0318433,1342,1328,0.7911116722494277,-0.056507976589244835,1326.1525926932618,1842.0906310855307,1347,-0.2825398829462242,,1383.4253341007425
19,196.575389325,1347,1332,0.7900325230816138,-0.052668834872107585,1327.0254309625802,2439.0739896248815,1340,0.3686818441047531,,1437.9504741132062
20,197.11883,1340,1327,0.798472358442206,-0.06142095064940046,1327.6951232032886,3084.262813398226,1331,0.5527885558446042,,1496.518462440613
21,197.662165325,1342,1322,0.7981102791346143,-0.03990551395673071,1328.1754540358313,3773.3929280856096,1338,0.15962205582692285,,1558.7409551725868
22,198.2053953,1342,1325,0.8040599544843242,-0.04729764438143084,1328.480208080652,4502.200159367093,1342,-0.0,,1624.229608398754
23,198.74851992499998,1331,1321,0.8074165803696804,-0.08074165803696805,1328.6231699581942,5266.420332922731,1336,-0.4037082901848402,,1692.5960782087388
24,199.2915392,1336,1316,0.8060625325032217,-0.040303126625161084,1328.6181242889024,6061.789274432573,1350,-0.5642437727522551,,1763.452020692167
25,199.83445312499998,1362,1331,0.8122546130835153,-0.02620176171237146,1328.478855693195,6884.042809576528,1365,-0.07860528513711439,inf,1836.409091938627
26,200.3772617,1346,2370,0.8144257223941842,0.0007953376195255705,1328.840811796391,7614.887902330599,1446,0.07953376195255706,inf,1900.8503476862081
27,200.919964925,1325,6608,0.8150182986479615,0.00015427187178647766,1328.3089084690223,8364.149697614735,1825,0.07713593589323883,inf,1965.9852771296821
28,201.4625628,1317,11505,0.8232603193402961,8.080686291129722e-05,1327.437201295587,9132.762689981479,2237,0.07434231387839345,inf,2031.776597431386
29,202.005055325,1318,13541,0.8194894939197722,6.704487391964102e-05,1327.0620172597087,9918.705701148196,2419,0.07381640618552476,inf,2099.1239439171495
30,202.5474425,1317,14431,0.8269202298982968,6.305629326660797e-05,1326.9722983532781,10717.817776166867,2504,0.07484782010746366,inf,2168.103218645907
31,203.089724325,1313,15124,0.8298864771900701,6.0088804372606626e-05,1326.2686584067333,11530.144397381373,2564,0.07517109427013088,inf,2237.891413168998
32,203.63190079999998,1323,15824,0.8293789756785952,5.719460559124165e-05,1325.0648938820557,12356.736211465482,2621,0.07423859805743166,inf,2308.325307481439
33,204.173971925,1326,16371,0.8303112569560028,5.518851824233984e-05,1324.4844050827624,13195.05270787535,2664,0.0738422374082507,inf,2379.974268952819
34,204.71593769999998,1326,16757,0.832804584655424,5.396957971974752e-05,1324.555618473779,14036.751772406808,2694,0.0738303850566146,-inf,2451.8743799406084
35,205.257798125,1320,17061,0.8371769300637781,5.318448193023176e-05,1324.6773199845723,14876.237740378885,2717,0.07429872125653378,-inf,2523.3969059321357
36,205.7995532,1322,17526,0.8381556767340916,5.172523307418487e-05,1325.0470225825925,15708.337742643922,2754,0.07407053376223273,-inf,2594.0219937030915
37,206.34120292499998,1329,18161,0.840625124319978,4.994208200570212e-05,1325.1431742508069,16533.154522185912,2825,0.07471335468053036,-inf,2663.835556864204
38,206.88274729999998,1322,18836,0.8415937915656597,4.805263169839327e-05,1324.7818523635617,17348.492627239244,2883,0.0750101580811919,-inf,2732.4138032570995
39,207.424186325,1309,19260,0.8431564976534377,4.6969890126089784e-05,1324.1595959138122,18143.235475321857,2885,0.0740245468387175,-inf,2798.7163469160714
40,207.96552,1298,19528,0.844165982526256,4.6306417033804496e-05,1323.7763709257033,18916.888423293487,2897,0.07404396083705339,0.13823278623447172,2862.8989331581142
41,208.506748325,1302,19852,0.8476484869242688,4.569533622233255e-05,1323.5468300527505,19672.581961085943,2937,0.07471187472351372,0.08933846581166516,2924.8802917392813
42,209.0478713,1311,20306,0.8491768105118729,4.470528089033287e-05,1323.342635167249,20406.134114022574,2984,0.07479193492952689,0.08103988152839633,2984.676210106627
43,209.588888925,1317,20881,0.8502736512177026,4.3461135310657464e-05,1323.1891096060813,21111.38009920909,3018,0.07392739116342835,0.06643783947823088,3041.825545312406
44,210.12980119999997,1317,21352,0.8513731200582484,4.249429099367349e-05,1323.3389204738244,21785.660105551236,3039,0.07317516909110575,0.05825295794948618,3096.343427937153
45,210.670608125,1325,21844,0.8534308197221572,4.1592222804335356e-05,1323.9561484971093,22415.988765317015,3085,0.07320231213563022,0.06921274468295056,3146.486081224883
46,211.2113097,1327,22279,0.8557212941711507,4.0841986167007956e-05,1324.648327255405,22998.14643593242,3122,0.07331136516977928,0.08800150476133867,3191.7298013544428
47,211.751905925,1321,22533,0.8575135521308375,4.042586989113886e-05,1325.4743029286933,23528.178418536776,3134,0.07329210211263475,0.09709399503086352,3232.5311558585076
48,212.29239679999998,1326,22874,0.8580327959771828,3.9819602560663765e-05,1326.489841219481,23996.24041314593,3160,0.07302915109625735,0.10180524731086257,3267.979116174709
49,212.83278232499998,1324,23388,0.8587529108532552,3.892099849770011e-05,1327.3719676549608,24407.48676074156,3192,0.0727044251937038,0.09328148314892679,3298.048336315595
50,213.37306249999997,1328,23923,0.8598387128136875,3.805437985455577e-05,1328.4634533058252,24763.36345104032,3229,0.07234137610351052,0.07696707593511472,3323.443113094231
51,213.91323732499998,1330,24476,0.8611437003932625,3.720486046804037e-05,1329.981132075446,25055.61086321273,3282,0.07262388763361481,0.07272357427159842,3342.577951935427
52,214.45330679999998,1350,25124,0.8624756676121401,3.62781049723286e-05,1331.2332329157823,25318.694239959652,3346,0.07241109752476789,0.0727025670950491,3358.1140229676134
53,214.993270925,1367,25679,0.8630074298534857,3.5497179576072954e-05,1331.6163899521816,25661.078438922246,3404,0.07230775479646061,0.07262008250444331,3379.8013771545707
54,215.5331297,1353,26217,0.8629495266956824,3.470678598357796e-05,1331.3891367867645,26118.750503974672,3438,0.07236364877576006,0.07246334741853037,3410.694534417475
55,216.07288312499998,1334,26798,0.8648478670709356,3.396355117306533e-05,1331.7586808307974,26616.14761376198,3468,0.07247821820332141,0.07229671063759205,3446.0453464403968
56,216.61253119999998,1338,27303,0.8650803831098881,3.3317172467163035e-05,1332.6953045368834,27118.531314412037,3510,0.07236489859867812,0.07215410108701972,3482.3645156175016
57,217.152073925,1348,27665,0.8652291434094919,3.2877195098586155e-05,1333.2754535776317,27628.469636910835,3541,0.07209968885119944,0.07202648946434387,3519.2515572265975
58,217.69151129999997,1338,27979,0.8680312398394996,3.2582532181205646e-05,1333.7637319078317,28151.336564814064,3550,0.07207256118482688,0.07186858857484944,3556.6432308771887
59,218.230843325,1328,28450,0.868212549145114,3.201137634190377e-05,1334.5310652562657,28688.847176605937,3581,0.0721216308983092,0.07167884278890824,3594.36843416605
60,218.77006999999998,1337,29004,0.868144571802742,3.137834141044356e-05,1335.2433350698514,29234.018233708015,3625,0.07179364514709487,0.07147981007138939,3632.233142313459
61,219.30919132499997,1331,29647,0.8681762475955156,3.066027149299038e-05,1335.524473940494,29777.225395818135,3678,0.07195965719404843,0.07129633295088242,3669.6958708010807
62,219.84820729999998,1328,30166,0.868951283960652,3.0132161868390737e-05,1336.200638746039,30323.12815692256,3705,0.07162414876116478,0.07110512960066233,3707.4895241114596
63,220.38711792499998,1335,30623,0.8691522224557424,2.967605239196061e-05,1337.3430428775027,30879.937688282265,3731,0.07110382153113762,0.070933479307867,3746.870121633487
64,220.9259232,1336,31353,0.8692686507714266,2.8959211472546443e-05,1338.1796416679624,31454.513941425022,3776,0.07066047599301332,0.0707730345944776,3787.599039615773
65,221.464623125,1327,32019,0.8701622824311823,2.835143628408648e-05,1338.4986522910795,32040.232779903803,3820,0.0706801306562276,0.0705975353066627,3828.600285397105
66,222.0032177,1326,32450,0.86932404321908,2.793098712309086e-05,1338.1981245328066,32626.892817503733,3860,0.07077712136991224,0.07042493163314792,3869.075539649748
67,222.54170692499997,1329,32857,0.8705973257298546,2.7613465038373974e-05,1337.5970010645513,33209.64909737417,3887,0.07063524356816063,0.07026858322486447,3908.8784343925495
68,223.0800908,1338,33333,0.8704844215444587,2.72068892497096e-05,1336.7996104101762,33791.31522797734,3923,0.07032980871049932,0.07013361601703633,3949.1408865432213
69,223.61836932499997,1343,33740,0.8703398065724872,2.6864827193026738e-05,1335.9959681985745,34372.77517044488,3942,0.06982168587467649,0.06997943451527952,3988.9104169969114
70,224.1565425,1337,34442,0.8697053263836744,2.6271116942566812e-05,1335.4084577226863,34953.5398989778,3992,0.06974981548251488,0.06979476516602719,4027.716935830859
71,224.69461032499999,1331,35163,0.8700422735223692,2.571654863804591e-05,1334.748057713626,35533.1470927987,4046,0.06982042955229464,0.06962349504036941,4066.8895331716813
72,225.23257279999999,1331,35900,0.8700397124616915,2.516820597823748e-05,1334.0352442863682,36107.12645812974,4089,0.06941391208797898,0.06946857653999008,4106.035901152835
73,225.77042992499997,1327,36881,0.8700678242154535,2.4471728194168125e-05,1333.322181702844,36669.675462637184,4150,0.06908368869213662,0.06932753120887548,4144.737774354945
74,226.30818169999998,1321,37571,0.8699872642519537,2.3999648669019413e-05,1332.715214387616,37220.08364855305,4190,0.06885499203141669,0.0691930427283739,4182.978957620704
75,226.84582812499997,1318,38046,0.8700242014773532,2.3688308687577684e-05,1331.8907563024954,37766.97979569114,4211,0.06853027703316224,0.06904296659986227,4220.115472604054
76,227.3833692,1333,38645,0.8696880407569096,2.3308534540011515e-05,1330.5558902806151,38307.03198260363,4276,0.0685970171512539,0.06889965349836863,4256.701533443485
77,227.92080492499997,1332,39012,0.87010037851645,2.3091835947888798e-05,1329.0130467280997,38833.230016534166,4314,0.06885985479660439,0.06878691504983142,4293.208498493655
78,228.45813529999998,1344,39193,0.8693067287349536,2.2967759484661514e-05,1328.5473510158527,39348.62454415653,4350,0.06904108501089251,0.06868296546395955,4330.241205916246
79,228.99536032499998,1360,39506,0.8691277262341458,2.2784242810101866e-05,1328.7243199166203,39847.19848694119,4380,0.06880841328650764,0.06859626823847743,4367.33330313249
80,229.53248,1343,40066,0.86926662631248,2.2448328546664256e-05,1328.6957122471376,40321.724365217015,4386,0.06831026376749932,0.06852312310571851,4402.902353394104
81,230.069494325,1321,40873,0.8686441253792921,2.1962078412704594e-05,1328.183016602842,40781.30213594794,4429,0.06825813970668587,0.06847003737317377,4437.6977281477775
82,230.60640329999998,1325,41487,0.868302707705708,2.162000666564683e-05,1327.814967496407,41216.78090103887,4468,0.06795168095012799,0.06844682834669871,4472.01096287563
83,231.143206925,1336,41967,0.8687016218294412,2.1380266836391946e-05,1327.7235724478217,41611.12663933418,4511,0.06788234720554442,0.06845168823610479,4504.568642551274
84,231.67990519999998,1329,42230,0.8683284847277679,2.1230006227910513e-05,1327.0923010713468,41964.193707670944,4549,0.06836062005387185,0.06847562988806927,4534.00890167379
85,232.216498125,1330,42515,0.8683608504247778,2.1084396028281603e-05,1326.0577363020427,42289.042243311604,4580,0.06852428709191521,0.06851956120708783,4561.567963034183
86,232.75298569999998,1338,42988,0.868249886800152,2.084633581753066e-05,1325.526489841194,42590.15209857446,4620,0.06841767415313563,0.06856908260033245,4588.120048019119
87,233.289367925,1325,43430,0.867778574191436,2.0609869948733783e-05,1324.814446533305,42860.5942829954,4647,0.06846598796969362,0.06865898843231633,4613.912251693042
88,233.8256448,1313,43747,0.8676471171202086,2.0446979241179447e-05,1323.9387302090392,43088.961901741,4666,0.06855872139567469,0.06877149843603324,4637.189811773677
89,234.36181632499998,1312,43844,0.8677489292852631,2.0402260163765238e-05,1323.5171578064935,43270.4274842004,4682,0.06875561675188885,0.0688816622769736,4656.979455933227
90,234.89788249999998,1310,43839,0.8672589311593729,2.0392177835344656e-05,1323.4601010215151,43430.52279779753,4671,0.06853810970459338,0.0689959080978551,4675.797209449728
91,235.433843325,1311,43909,0.8668004592010585,2.0348383942932967e-05,1322.9340868422587,43575.1343631784,4685,0.06865544742345583,0.0691365409236562,4694.157874470454
92,235.9696988,1316,44095,0.8665578153052318,2.025661692197648e-05,1322.1525289360773,43683.3191465257,4729,0.06913583355470572,0.06931059763163556,4710.91091530943
93,236.505448925,1325,44238,0.8666098942893835,2.019457726771336e-05,1321.0631271376224,43750.491743866514,4742,0.06900487052377656,0.0695082154158814,4724.988765317358
94,237.04109369999998,1327,44421,0.8664654382940954,2.010640549250697e-05,1320.171419511175,43784.55557317183,4773,0.06928667332717901,0.0697209105358258,4737.40182110571
95,237.576633125,1315,44460,0.8658853313998153,2.006919298643679e-05,1319.5147568461095,43780.65165688834,4805,0.07004148352266439,0.06994198574889622,4747.567645926204
96,238.11206719999998,1321,44456,0.8659634438688039,2.007565651718567e-05,1318.7037985005068,43741.92380348282,4814,0.07012426821452955,0.0701783468637928,4755.544270538314
97,238.64739592499998,1322,44464,0.8653764850454776,2.00587938678197e-05,1318.0031031280184,43680.2423157934,4824,0.0702458961251046,0.07042777154693985,4762.137171849781
98,239.1826193,1312,44377,0.865240351462597,2.009149776994304e-05,1317.8401322793013,43611.425921311085,4815,0.07038051668811046,0.0706657460698018,4768.2830641689725
99,239.71773732499997,1308,44273,0.8654717432609225,2.0143645834072443e-05,1317.5468980044595,43553.88219438635,4810,0.0705430477109217,0.07090551999301528,4775.642687263493
100,240.25275,1308,43925,0.8654328986505,2.0307222438240608e-05,1316.7271512378284,43497.58755577619,4827,0.0714611157601687,0.07116440694326363,4783.690751772316
101,240.787657325,1326,43589,0.8649750843904328,2.0466485682285517e-05,1316.3186935151166,43437.40628326719,4826,0.07163269988799931,0.07141100610187387,4791.239416521234
102,241.3224593,1335,43414,0.8650023747478218,2.0556628597348365e-05,1316.6602188044778,43388.73809146217,4821,0.0716604072903564,0.07165261767984252,4800.14858773689
103,241.85715592499997,1320,43161,0.864426750181391,2.0659801395315387e-05,1317.1537520668394,43342.416974336076,4804,0.07197874806127881,0.07190571416993322,4809.973861242519
104,242.3917472,1319,42953,0.8640504083213235,2.0753480528446067e-05,1317.8069718453169,43286.83197807341,4795,0.07213909831687854,0.07216625439137626,4819.745045187794
105,242.92623312499998,1316,42924,0.8638615542876957,2.0761910072286475e-05,1318.5994699766447,43233.702620670076,4815,0.07264592334293038,0.07242438500508167,4830.020770572287
106,243.46061369999998,1314,42574,0.8647030136247108,2.0957416714122897e-05,1319.484314480484,43201.63824775111,4802,0.07309946949886066,0.07266182643584085,4841.217853178914
107,243.994888925,1312,42391,0.863747888775786,2.1026507187998392e-05,1320.0195021404534,43193.70040091426,4785,0.07302505946391842,0.07287591286367041,4852.881469568867
108,244.52905879999997,1313,42615,0.8628771528607923,2.0891897556069738e-05,1320.5196040680173,43201.23880495512,4797,0.07278737108534697,0.07306455961790566,4864.701306937776
109,245.063123325,1323,42786,0.8633129275796555,2.0821284701532826e-05,1321.2018392262314,43227.144329429066,4832,0.07306188801767868,0.07324827417275102,4878.129991619195
110,245.59708249999997,1328,42637,0.8623491049005171,2.0875574448679877e-05,1321.6596298896663,43277.70570114755,4846,0.07344027091045581,0.07343088342285144,4893.391650999929
111,246.130936325,1321,42370,0.862505803534046,2.101161547258267e-05,1322.232440145844,43366.23465990087,4842,0.07398189807896359,0.07360103550882778,4911.311354730477
112,246.66468479999997,1322,42420,0.8631762817630669,2.100287804182848e-05,1323.011370585945,43499.45690729039,4838,0.07384611919506893,0.07375167562672899,4932.160705791655
113,247.19832792499997,1325,42789,0.8629529675416884,2.0812101281634392e-05,1323.5966839565763,43677.06473532725,4869,0.07375808694211229,0.07387742401637117,4955.260617454433
114,247.7318657,1317,43349,0.8621360146885437,2.0511420220035774e-05,1323.9725928106839,43894.34702937695,4938,0.07427185261674954,0.07396660070927699,4979.410609526734
115,248.265298125,1305,43395,0.8624878814902607,2.0491515359711585e-05,1324.12088609026,44144.35054021523,4946,0.07460960742470989,0.07403194045095625,5004.806428231574
116,248.79862519999998,1310,43208,0.862427427307537,2.0583976020514988e-05,1324.287526331262,44418.18709370456,4935,0.07461691307436683,0.0740683485664317,5030.823597363377
117,249.33184692499998,1316,43530,0.8621956715984717,2.0424401184404975e-05,1324.4128066320613,44704.67455661425,4960,0.07442651791597173,0.07407528889353825,5056.490407483651
118,249.8649633,1330,44064,0.8614594306460737,2.0158642547996295e-05,1324.697229835305,45022.17656118965,5014,0.07426443914681835,0.07406193737258387,5083.7216471493275
119,250.397974325,1336,44494,0.861591555373828,1.9963658079008016e-05,1324.7369136333525,45378.82144555848,5049,0.07412506244735677,0.07401287711715074,5111.929556728253
