,x_(nm),baseline_dark,baseline_light,baseline_mirror,baseline_calibration,baseline_dark_smoothed,baseline_light_smoothed,raw_signal,calibrated_signal,calibrated_signal_smoothed,raw_signal_smoothed
0,186.23,1028,1006,0.3621226043733797,-0.016460118380608166,994.9334326215563,3746.6117703975783,1009,0.31274224923155514,,1243.9259037916092
1,186.775442325,1019,1019,1.18800459154587,inf,1004.2671036613318,2808.6276331142158,996,-inf,,1161.587931737766
2,187.3207793,1013,1021,1.908567993433533,0.2385709991791916,1012.9015801127737,1988.116260611657,997,-3.817135986867066,,1090.1391244064152
3,187.86601092499998,1014,1008,1.7279185264672412,-0.28798642107787353,1020.8606382530432,1281.0632521223379,1001,3.743823474012356,,1029.1929665431733
4,188.41113719999998,1017,1007,1.043047789334166,-0.10430477893341661,1028.168054359302,683.4542068786945,1002,1.5645716840012491,,978.3629428936554
5,188.956158125,1022,1003,0.840365554154959,-0.04422976600815574,1034.8476047087113,191.2747241131633,1004,0.7961357881468033,,937.2625382034773
6,189.50107369999998,1025,1006,0.8202728553565946,-0.04317225554508392,1040.9230655784327,-199.48959694182076,1005,0.8634451109016784,,905.505237218255
7,190.045883925,1039,1028,0.837733819880384,-0.07615761998912582,1046.4182132456272,-492.85315705382027,1016,1.7516252597498938,,882.7045246836041
8,190.59058879999998,1046,1034,0.8116271105193998,-0.06763559254328332,1051.3568239874567,-692.8303569903997,1029,1.1498050732358163,,868.4738853451402
9,191.135188325,1048,1040,0.8262856362484797,-0.10328570453105997,1055.7626740810824,-803.4355975191224,1046,0.20657140906211993,,862.4268039484789
10,191.67968249999998,1059,1056,0.8012221689422371,-0.26707405631407904,1059.6595398036654,-828.6832794075531,1064,-1.3353702815703952,,864.1767652392363
11,192.22407132499998,1053,1047,0.7775424502505143,-0.1295904083750857,1063.0711974323676,-772.5878034232569,1062,-1.1663136753757712,,873.3372539630277
12,192.7683548,1044,1040,0.7753865851703869,-0.19384664629259674,1066.0214232443504,-639.1635703337938,1047,-0.5815399388777902,,889.5217548654691
13,193.312532925,1049,1035,0.7956261498651602,-0.056830439276082875,1068.5339935167747,-432.4249809067319,1028,1.1934392247977403,,912.3437526921762
14,193.8566057,1057,1043,0.7908861747409445,-0.05649186962435317,1070.6326845268024,-156.38643590963375,1039,1.0168536532383572,,941.4167321887643
15,194.400573125,1072,1058,0.7942231778648126,-0.05673022699034375,1072.3412725515946,184.937663889938,1055,0.9644138588358439,,976.3541781008496
16,194.9444352,1087,1064,0.7947581770897779,-0.03455470335172948,1073.683533868313,587.5329177244171,1055,1.1057505072553433,,1016.7695751740478
17,195.488191925,1094,1071,0.7914877943554887,-0.034412512798064725,1074.6832447541185,1047.3849248262418,1058,1.2388504607303301,,1062.2764081539744
18,196.0318433,1096,1080,0.7911116722494277,-0.04944447951558923,1075.364181486173,1560.4792844278486,1069,1.3350009469209092,,1112.4881617862447
19,196.575389325,1093,1081,0.7900325230816138,-0.06583604359013448,1075.750120341638,2122.8015957616717,1057,2.3700975692448414,,1167.0183208164754
20,197.11883,1088,1075,0.798472358442206,-0.06142095064940046,1075.8648375976743,2730.337458060146,1046,2.579679927274819,,1225.4803699902818
21,197.662165325,1091,1070,0.7981102791346143,-0.03800525138736258,1075.7321095314437,3379.072470555711,1068,0.8741207819093394,,1287.4877940532788
22,198.2053953,1086,1069,0.8040599544843242,-0.04729764438143084,1075.3757124201077,4064.992232480802,1075,0.5202740881957392,,1352.6540777510836
23,198.74851992499998,1069,1065,0.8074165803696804,-0.2018541450924201,1074.8194225408274,4784.082343067854,1065,0.8074165803696804,,1420.5927058293107
24,199.2915392,1073,1073,0.8060625325032217,inf,1074.0870161707644,5532.328401549303,1077,inf,,1490.917163033576
25,199.83445312499998,1099,1100,0.8122546130835153,0.8122546130835153,1073.2022695870594,6305.71600715746,1102,2.436763839250546,inf,1563.2409341094628
26,200.3772617,1096,2052,0.8144257223941842,0.0008519097514583517,1073.3571315318375,6993.107726109179,1189,0.0792276068856267,inf,1627.836621440998
27,200.919964925,1069,6049,0.8150182986479615,0.0001636582929011971,1072.8845273958434,7696.984914720459,1560,0.08035622181448777,inf,1692.836530838718
28,201.4625628,1053,10638,0.8232603193402961,8.589048715078729e-05,1071.7291444879636,8418.30607714768,1964,0.07824623379436722,inf,1758.7019864549256
29,202.005055325,1057,12592,0.8194894939197722,7.104373592715841e-05,1070.992797118827,9155.070262066914,2147,0.07743767216060267,inf,1826.387528596309
30,202.5474425,1064,13453,0.8269202298982968,6.674632576465387e-05,1070.596344198036,9905.028992728978,2234,0.07809320114464503,inf,1894.9524791048132
31,203.089724325,1059,14065,0.8298864771900701,6.380797148931802e-05,1069.4438832136425,10668.86325851075,2285,0.0782285730459039,inf,1963.4479150150253
32,203.63190079999998,1057,14682,0.8293789756785952,6.087185142595194e-05,1067.7472649436927,11447.263856485772,2339,0.07803771352807039,inf,2032.1179188656204
33,204.173971925,1051,15150,0.8303112569560028,5.889149989048889e-05,1066.7087589752678,12236.454098620348,2380,0.07826680335445974,inf,2101.3984008697416
34,204.71593769999998,1061,15543,0.832804584655424,5.750618593118519e-05,1066.2952954766606,13027.188135631362,2424,0.07838093142420541,inf,2170.9558087385485
35,205.257798125,1075,15879,0.8371769300637781,5.655072480841517e-05,1065.904052186892,13814.318920020572,2458,0.07820965241003817,inf,2240.281886339398
36,205.7995532,1059,16313,0.8381556767340916,5.494661575547998e-05,1065.6257899385964,14593.477994971294,2486,0.07840882068306994,inf,2309.691000928629
37,206.34120292499998,1061,16923,0.840625124319978,5.2996162168703696e-05,1065.3088631678881,15365.496319282134,2530,0.07785136222582573,inf,2378.3459648009693
38,206.88274729999998,1063,17543,0.8415937915656597,5.106758443966382e-05,1064.6357561892476,16129.38039366659,2568,0.07685671458169405,inf,2444.4023420688563
39,207.424186325,1052,17893,0.8431564976534377,5.006570260990664e-05,1063.7971188475185,16875.779745860284,2584,0.07670065639837698,inf,2507.0439647556655
40,207.96552,1040,18166,0.844165982526256,4.929148560821301e-05,1063.0418129515754,17602.00935468493,2611,0.07743692389050263,inf,2567.767695757499
41,208.506748325,1038,18512,0.8476484869242688,4.8509127098790706e-05,1062.4782441278194,18310.238759654454,2630,0.0772265303412748,inf,2627.041767650406
42,209.0478713,1057,18909,0.8491768105118729,4.75676008577119e-05,1062.0919160116673,18997.128383428477,2656,0.07606059377148133,inf,2684.103626356151
43,209.588888925,1068,19454,0.8502736512177026,4.624571147708597e-05,1061.7988629413826,19657.77308659275,2700,0.0754730011306043,inf,2738.33740288563
44,210.12980119999997,1070,19916,0.8513731200582484,4.5175269025695025e-05,1061.986115200777,20288.142290878226,2738,0.0753523487348593,-inf,2789.4300210649762
45,210.670608125,1065,20371,0.8534308197221572,4.42054708236899e-05,1062.5962535957576,20875.261636729763,2775,0.07559135510850973,-inf,2835.630546558191
46,211.2113097,1046,20733,0.8557212941711507,4.346631249916954e-05,1063.3472332328954,21417.022084305012,2803,0.07637031106104088,-inf,2876.8114340075094
47,211.751905925,1045,20941,0.8575135521308375,4.309979654859456e-05,1064.1659607238917,21910.106140569016,2822,0.07658833846685253,-inf,2912.632607760029
48,212.29239679999998,1069,21295,0.8580327959771828,4.2422268168554476e-05,1064.538290787993,22346.293030419285,2860,0.07597828228988107,-inf,2942.6564135087438
49,212.83278232499998,1081,21786,0.8587529108532552,4.1475629599287864e-05,1064.5528777548552,22730.214931255086,2899,0.07540269461150534,-inf,2967.3276178395317
50,213.37306249999997,1086,22262,0.8598387128136875,4.060439709169284e-05,1065.016648168681,23062.347074678484,2922,0.07454967306034806,0.012037187131801852,2986.908038687116
51,213.91323732499998,1071,22774,0.8611437003932625,3.967855597812572e-05,1065.7231194364333,23335.40705338695,2944,0.07431793534702948,0.07457962261379696,3000.4148678338684
52,214.45330679999998,1079,23415,0.8624756676121401,3.861370288378135e-05,1066.4367709347684,23579.636979319577,3000,0.07417692323974397,0.07433701307133117,3011.296654510803
53,214.993270925,1092,23958,0.8630074298534857,3.774195005044545e-05,1065.9167591564724,23897.098711182127,3048,0.0738232542986713,0.07414951972548645,3028.720990282847
54,215.5331297,1073,24481,0.8629495266956824,3.68655812839919e-05,1064.4901809780313,24322.919522525524,3057,0.07314131326743993,0.07389845528380802,3054.6117692359376
55,216.07288312499998,1055,25014,0.8648478670709356,3.609699349183754e-05,1064.2156787242996,24788.197286461276,3083,0.07320470280144653,0.07361759642603306,3084.892364492908
56,216.61253119999998,1077,25429,0.8650803831098881,3.5523997335327204e-05,1064.825296156178,25260.860721646663,3134,0.07307286251876806,0.07335345485242212,3116.5980429907213
57,217.152073925,1094,25708,0.8652291434094919,3.5151911246018193e-05,1065.6347595641826,25741.276812611344,3168,0.07290506392424173,0.07308319221848805,3148.573195315802
58,217.69151129999997,1083,26003,0.8680312398394996,3.483271427927366e-05,1066.3980611112165,26232.882103784403,3187,0.07328803084359178,0.07279950147761506,3181.0104419125532
59,218.230843325,1065,26482,0.868212549145114,3.415873427804674e-05,1066.7120659584384,26735.556207388105,3209,0.07323632629213221,0.07253031970490206,3214.1883847878153
60,218.77006999999998,1061,27043,0.868144571802742,3.3413308128810024e-05,1067.3011166730637,27248.42093818608,3244,0.07294125164519229,0.07225877612878293,3247.9064757978035
61,219.30919132499997,1064,27682,0.8681762475955156,3.2616133728887055e-05,1068.1235588574848,27765.018754671146,3261,0.07165764580236486,0.07198693460522528,3281.7687603342592
62,219.84820729999998,1055,28175,0.868951283960652,3.204097654722168e-05,1068.4799655711136,28286.278556705158,3274,0.0710989269582849,0.0717251310722382,3315.5161158802507
63,220.38711792499998,1051,28582,0.8691522224557424,3.156994742129753e-05,1068.9354911775827,28821.139550159136,3324,0.07175849048860929,0.07143502292515712,3349.220548596733
64,220.9259232,1054,29195,0.8692686507714266,3.088975696568802e-05,1069.5065799904664,29372.91345217276,3388,0.07209669275791585,0.07110301731328836,3383.0210197285815
65,221.464623125,1053,29817,0.8701622824311823,3.0251782868557306e-05,1069.730843280688,29934.229812679216,3422,0.07166647361561226,0.0707624077712818,3416.6329475185644
66,222.0032177,1058,30258,0.86932404321908,2.9771371343119178e-05,1069.0910326394503,30497.54284355193,3434,0.07073677831125116,0.07045587168070679,3450.216675349319
67,222.54170692499997,1068,30664,0.8705973257298546,2.941604695667842e-05,1068.1413848558086,31058.245418921688,3441,0.06980427942819789,0.07015604620776184,3483.2387823053077
68,223.0800908,1077,31093,0.8704844215444587,2.9000680355292466e-05,1067.7709121384198,31618.108315023514,3456,0.06899261856524078,0.06981911294987536,3515.5176334684143
69,223.61836932499997,1069,31515,0.8703398065724872,2.8586343249441213e-05,1067.5299327277876,32178.527780923076,3476,0.068807328201405,0.06946528733078787,3547.390156062357
70,224.1565425,1056,32249,0.8697053263836744,2.788142616560364e-05,1067.4289564882351,32736.77949670371,3520,0.06869983407204737,0.06910535298798628,3578.7601757683515
71,224.69461032499999,1048,32948,0.8700422735223692,2.7274052461516275e-05,1067.233391469775,33293.69938163881,3556,0.06840332357348282,0.06874714451176923,3609.533692722303
72,225.23257279999999,1050,33652,0.8700397124616915,2.668669751738211e-05,1066.1480894244285,33844.65650411043,3629,0.06882499289732846,0.0684191354580783,3639.3560443044444
73,225.77042992499997,1063,34544,0.8700678242154535,2.598691270318848e-05,1064.9512786246369,34384.309361479776,3699,0.06850150188560483,0.06810801743968943,3668.1961086320616
74,226.30818169999998,1060,35167,0.8699872642519537,2.550758683707021e-05,1064.428367573424,34914.10122539515,3726,0.06800322650762919,0.06778541442447658,3696.2687037078276
75,226.84582812499997,1048,35631,0.8700242014773532,2.515756879036964e-05,1064.156175677798,35440.45964800946,3751,0.06800090844036913,0.06745092127934395,3723.649754241247
76,227.3833692,1069,36200,0.8696880407569096,2.4755573162076502e-05,1064.1339781195293,35958.177920224,3814,0.0679540483299,0.06709569671804953,3749.716596072319
77,227.92080492499997,1074,36590,0.87010037851645,2.4498828092027534e-05,1063.4457632109243,36461.24392398399,3819,0.06724928311261558,0.06674192196795833,3773.8993861694903
78,228.45813529999998,1097,36851,0.8693067287349536,2.4313551735049327e-05,1062.9646877618768,36955.24854470019,3823,0.06627874202974446,0.06638261535923141,3797.020883825155
79,228.99536032499998,1120,37175,0.8691277262341458,2.410560882635268e-05,1062.9998867471313,37432.63364968557,3857,0.06597705135772729,0.0660232691497159,3819.235316768143
80,229.53248,1091,37719,0.86926662631248,2.3732298414122527e-05,1062.8088971437426,37885.182744795304,3854,0.06557234051822054,0.0656590661077803,3839.325851095081
81,230.069494325,1070,38465,0.8686441253792921,2.3228884219261722e-05,1062.192348637548,38321.32007519915,3870,0.06504087581393282,0.0653052293975072,3857.9542231986393
82,230.60640329999998,1057,39030,0.868302707705708,2.2866318376364996e-05,1062.2351355636392,38731.9786178615,3894,0.06487174523374749,0.06495356814254025,3875.093048540097
83,231.143206925,1053,39515,0.8687016218294412,2.258597113591184e-05,1062.7374572470294,39098.54791727937,3917,0.06468622133325151,0.06459846189916794,3888.9849600216703
84,231.67990519999998,1058,39851,0.8683284847277679,2.2383638407129325e-05,1063.0291059819951,39422.91340687143,3917,0.06399482220598274,0.06425507907719616,3899.453419103415
85,232.216498125,1055,40093,0.8683608504247778,2.2243989200901117e-05,1062.7467666311604,39718.2470044614,3924,0.0638180050173853,0.06394248681567818,3908.220820403558
86,232.75298569999998,1060,40437,0.868249886800152,2.2049670792598522e-05,1061.8869283562278,39988.0257763475,3932,0.06332665451634295,0.0636540518915238,3915.5032277061014
87,233.289367925,1059,40804,0.867778574191436,2.1833653898388123e-05,1061.361729597479,40226.36238646325,3939,0.06288092322735779,0.06334944570729105,3920.4613694533673
88,233.8256448,1055,41015,0.8676471171202086,2.171289081882404e-05,1060.8976194251081,40419.46227547545,3958,0.06303252204704618,0.06305957507436241,3922.774853337486
89,234.36181632499998,1050,41087,0.8677489292852631,2.16736750826801e-05,1060.3546852703141,40560.505696617496,3966,0.06320043654109517,0.06281833130383357,3922.826972298278
90,234.89788249999998,1046,41057,0.8672589311593729,2.1675512513043237e-05,1060.2332555663572,40672.6349181174,3956,0.06307574141295581,0.0625948257209893,3921.6321547486173
91,235.433843325,1057,41089,0.8668004592010585,2.1652689328563613e-05,1059.8001540238533,40765.311626536626,3943,0.06248966140223459,0.06238664826384975,3919.25411674096
92,235.9696988,1059,41254,0.8665578153052318,2.1558846008340137e-05,1058.9240752904732,40822.60266370621,3932,0.06193856458196122,0.062200614189603834,3914.9978028946675
93,236.505448925,1053,41332,0.8666098942893835,2.1515178983822426e-05,1058.1077034587215,40838.75156855117,3927,0.06183462439950565,0.06202673675129065,3908.296926317622
94,237.04109369999998,1057,41450,0.8664654382940954,2.1450881051026054e-05,1057.2692246709803,40818.35355274107,3925,0.061521126854342724,0.061841776073212694,3898.5339645291333
95,237.576633125,1053,41526,0.8658853313998153,2.139414749091531e-05,1056.5549389566945,40759.53992162825,3918,0.061294232561472366,0.0616540085875637,3885.9044825476617
96,238.11206719999998,1049,41495,0.8659634438688039,2.1410360576294415e-05,1055.694149357836,40667.64397834527,3910,0.06125504160877832,0.061473377811664225,3871.034836576065
97,238.64739592499998,1056,41437,0.8653764850454776,2.1430288626965098e-05,1054.5821875919976,40553.01048721298,3901,0.0609691711437157,0.06130938496640757,3854.8557838228894
98,239.1826193,1053,41282,0.865240351462597,2.1507876195346566e-05,1053.7641396180913,40430.22349317007,3877,0.0607382423756587,0.0611889019323767,3840.2265283471143
99,239.71773732499997,1050,41089,0.8654717432609225,2.1615718256223245e-05,1053.207343314664,40313.35620285773,3858,0.06069693686347487,0.06109356275327498,3827.5878502343608
100,240.25275,1053,40688,0.8654328986505,2.1835067456805855e-05,1052.4376543069857,40196.22458039743,3833,0.06070148752992027,0.061018162906087275,3815.633808240204
101,240.787657325,1051,40323,0.8649750843904328,2.2025236412467734e-05,1051.6043851502664,40076.1043285231,3807,0.06070155155276107,0.060971647546756706,3804.584996262583
102,241.3224593,1060,40098,0.8650023747478218,2.2157958264968025e-05,1051.3807787265648,39966.72640376829,3793,0.060557699938157614,0.06095407849966124,3796.0987564836523
103,241.85715592499997,1063,39735,0.864426750181391,2.2352781086610235e-05,1051.6377041382389,39863.04052186836,3784,0.06082191733666645,0.06093524680339376,3788.321751341974
104,242.3917472,1063,39458,0.8640504083213235,2.2504242956669448e-05,1052.562005934429,39757.21982377781,3763,0.06076145598300751,0.06091388110183396,3781.044485718743
105,242.92623312499998,1055,39391,0.8638615542876957,2.2533951228289224e-05,1054.2925094565928,39657.745475547956,3740,0.060503659047956564,0.06089505721822711,3775.0398876531026
106,243.46061369999998,1050,38992,0.8647030136247108,2.279012739509543e-05,1055.4256042039256,39582.807402205406,3704,0.06048499810658327,0.0608878247680405,3770.764524677724
107,243.994888925,1048,38700,0.863747888775786,2.2940292382231647e-05,1056.3320347006527,39532.68946068918,3692,0.060654133058620475,0.060888120326920835,3768.4969081971685
108,244.52905879999997,1052,38855,0.8628771528607923,2.2825626348723442e-05,1056.9154454234322,39500.36614645783,3729,0.06110420173553265,0.06089605623636134,3767.5923350471544
109,245.063123325,1052,38941,0.8633129275796555,2.2785318366271357e-05,1057.3558630999366,39493.03560669476,3765,0.06181656872769419,0.060911668561002344,3768.5829350607437
110,245.59708249999997,1055,38729,0.8623491049005171,2.2889767608974814e-05,1057.6240231941629,39518.53235633801,3747,0.0616192544033602,0.06092910012462955,3771.9123422953367
111,246.130936325,1072,38440,0.862505803534046,2.308140129346088e-05,1057.5736709778048,39589.68409250417,3733,0.0614196088418994,0.060962296304250915,3779.004779270126
112,246.66468479999997,1066,38429,0.8631762817630669,2.310243507649458e-05,1057.5490951097217,39710.73779700483,3729,0.06152178460870507,0.06099832759401802,3789.8545380415594
113,247.19832792499997,1055,38803,0.8629529675416884,2.286089243249148e-05,1057.6348275158919,39879.74871457941,3731,0.0611757481493472,0.06103932409671215,3804.6254954811384
114,247.7318657,1051,39426,0.8621360146885437,2.24660850733171e-05,1057.638768715013,40090.579197716055,3763,0.060928022718835975,0.06110580864805934,3823.6232077736026
115,248.265298125,1035,39562,0.8624878814902607,2.238658295455812e-05,1057.7519309610434,40341.55111100966,3788,0.0616302628738985,0.06118156762265222,3845.933090217145
116,248.79862519999998,1039,39428,0.862427427307537,2.246548301095462e-05,1058.0396611474578,40624.7820109168,3790,0.06180254376313616,0.06125173432171554,3870.2616367300893
117,249.33184692499998,1056,39696,0.8621956715984717,2.2313552577600198e-05,1058.579152415663,40928.62492921618,3796,0.06113913406262454,0.061310788409823645,3895.799814265254
118,249.8649633,1065,40211,0.8614594306460737,2.200632071338256e-05,1059.1209087408347,41269.85884164908,3818,0.06058340092394219,0.061360024215477565,3923.5299553783016
119,250.397974325,1080,40700,0.861591555373828,2.1746379489495914e-05,1059.1352692020002,41655.83573806802,3876,0.06080287705263057,0.06141458458042452,3954.1692903575768
120,250.93087999999997,1074,41368,0.861950076569216,2.139152421127751e-05,1059.248408797461,42089.53632018765,3945,0.06141506601057773,0.061463506132784486,3987.9658882420126
