,x_(nm),baseline_dark,baseline_light,baseline_dark_smoothed,baseline_light_smoothed,raw_signal,calibrated_signal,calibrated_signal_smoothed,raw_signal_smoothed
0,186.23,1305,1297,1293.855260536725,4487.912714900529,1291,1.75,,1283.3113887386908
1,186.775442325,1297,1296,1297.0909815304926,3387.202622600425,1297,-0.0,,1286.3652510189684
2,187.3207793,1299,1300,1300.2542485789668,2425.833157504275,1295,-4.0,,1289.4231638406043
3,187.86601092499998,1297,1299,1303.3426274718884,1598.871275425205,1282,-7.5,,1292.4816181689573
4,188.41113719999998,1306,1299,1306.3536839989986,901.383932176343,1281,3.5714285714285716,,1295.5371049693863
5,188.956158125,1313,1299,1309.2849839500386,328.43808357081434,1284,2.0714285714285716,,1298.5861152072503
6,189.50107369999998,1303,1308,1312.1340931147497,-124.89931457825332,1285,-3.6,,1301.6251398479083
7,190.045883925,1311,1318,1314.8985772828728,-463.56130645773374,1296,-2.142857142857143,,1304.6506698567187
8,190.59058879999998,1327,1330,1317.576002244149,-692.4809362544993,1308,-6.333333333333333,,1307.659196199041
9,191.135188325,1328,1338,1320.1639337883198,-816.5912481554251,1322,-0.6,,1310.6472098402337
10,191.67968249999998,1333,1344,1322.659937705126,-840.8252863473817,1337,0.36363636363636365,,1313.6112017456558
11,192.22407132499998,1334,1343,1325.0615797843088,-770.1160950172443,1339,0.5555555555555556,,1316.5476628806662
12,192.7683548,1324,1335,1327.3664258156098,-609.3967183518871,1327,0.2727272727272727,,1319.4530842106237
13,193.312532925,1312,1333,1329.5720415887695,-363.6002005381815,1318,0.2857142857142857,,1322.3239567008875
14,193.8566057,1307,1338,1331.6759928935294,-37.659585762999995,1316,0.2903225806451613,,1325.156771316816
15,194.400573125,1313,1330,1333.6758455196307,363.49208178678145,1319,0.35294117647058826,,1327.9480190237684
16,194.9444352,1323,1333,1335.5691652568144,834.9217579242904,1332,0.9,,1330.6941907871037
17,195.488191925,1335,1349,1337.3535178948216,1371.6963984626555,1346,0.7857142857142857,,1333.3917775721804
18,196.0318433,1348,1364,1339.0264692233936,1968.8829592150023,1360,0.75,,1336.037270344358
19,196.575389325,1344,1361,1340.5855850322714,2621.5483959944527,1342,-0.11764705882352941,,1338.6271600689947
20,197.11883,1340,1351,1342.0284311111964,3324.7596646141465,1325,-1.3636363636363635,,1341.1579377114497
21,197.662165325,1351,1351,1343.3525732499097,4073.5837208871926,1341,-inf,,1343.626094237082
22,198.2053953,1358,1354,1344.5555772381522,4863.0875206267365,1337,5.25,,1346.0281206112504
23,198.74851992499998,1348,1346,1345.6350088656652,5688.33801964589,1321,13.5,,1348.3605077993138
24,199.2915392,1344,1343,1346.58843392219,6544.402173757786,1335,9.0,,1350.6197467666311
25,199.83445312499998,1368,1367,1347.4134181974418,7426.3469387753685,1361,7.0,-inf,1352.8023284785354
26,200.3772617,1373,2483,1348.1972185100196,8198.811728464814,1354,-0.017117117117117116,-inf,1354.7583184216824
27,200.919964925,1353,7061,1348.3256245894327,8985.32879566904,1341,-0.002102312543798178,-inf,1356.6625518131523
28,201.4625628,1352,12461,1347.7891911481317,9787.349135880579,1351,-9.001710324961742e-05,-inf,1358.4633400529763
29,202.005055325,1349,14706,1347.2334820720484,10604.425037939502,1361,0.0008984053305382946,-inf,1360.0902625200763
30,202.5474425,1348,15691,1347.0642823166747,11433.136469681993,1369,0.0014641288433382138,-inf,1361.4193979478323
31,203.089724325,1340,16395,1346.8579129764855,12270.753833608682,1375,0.002324809033543673,-inf,1362.3446510679485
32,203.63190079999998,1345,17097,1345.795578608776,13117.529185258758,1382,0.0023489080751650585,-inf,1362.953045369065
33,204.173971925,1351,17594,1344.9575075312887,13971.741149289635,1378,0.0016622545096349197,-inf,1363.8181838772982
34,204.71593769999998,1352,17916,1345.0756529026448,14823.62135042668,1391,0.0023545037430572325,-inf,1365.0180298534247
35,205.257798125,1359,18182,1345.0804321728433,15664.981426532579,1387,0.0016643880401830827,-inf,1366.4270764909472
36,205.7995532,1348,18569,1344.9789576207581,16490.38793630628,1367,0.001103304105452645,-inf,1368.4537588620092
37,206.34120292499998,1340,19153,1344.9437133343645,17303.072549774293,1369,0.0016280244765059227,-inf,1370.6272622256186
38,206.88274729999998,1340,19759,1344.3666447710903,18101.460757887715,1360,0.0010858352787882079,-inf,1372.1484518335374
39,207.424186325,1335,20057,1343.022786473054,18874.06478062887,1356,0.001121675034718513,-inf,1372.8599062266153
40,207.96552,1324,20262,1341.2573784230417,19619.56413508762,1373,0.0025873904319357903,-inf,1373.3779700559205
41,208.506748325,1318,20562,1339.7141951119813,20339.738182064888,1381,0.0032737476616088133,inf,1374.133140048446
42,209.0478713,1330,20957,1338.546241137939,21029.136990644907,1379,0.0024965608600397413,inf,1375.1535255611414
43,209.588888925,1343,21452,1337.6761874560889,21682.575777480386,1374,0.0015415982893231886,inf,1376.5814401231928
44,210.12980119999997,1351,21809,1337.4427733357238,22297.529592968836,1359,0.00039104506794408056,inf,1378.6047702099445
45,210.670608125,1349,22197,1337.1605245871679,22860.639357629403,1365,0.0007674597083653108,inf,1380.057283290648
46,211.2113097,1335,22568,1336.764411424922,23370.077261092665,1373,0.0017896670277398388,inf,1380.7152143876153
47,211.751905925,1322,22740,1336.840743844682,23821.332986024143,1373,0.0023811747128583433,-0.6389280407340051,1381.7417835058288
48,212.29239679999998,1319,22994,1337.0489025798745,24204.184896599687,1383,0.0029527104959630912,-0.6574877574887602,1382.3907449772098
49,212.83278232499998,1321,23382,1337.109742009986,24524.855829123633,1374,0.0024024296269434748,-0.3850064893215115,1382.359305986519
50,213.37306249999997,1330,23806,1337.1578518199474,24783.98686266912,1378,0.002135611318739989,-0.18403902480536172,1382.5837957824374
51,213.91323732499998,1326,24294,1337.5377245237462,24974.04958209651,1386,0.002612330198537095,0.0024903734442162173,1382.858162132751
52,214.45330679999998,1333,24914,1337.9839180955144,25132.527192008398,1392,0.00250201433357364,0.0019991489599880423,1382.6063104486811
53,214.993270925,1352,25419,1337.311422682255,25375.412036512233,1392,0.001662026841733494,0.001884637081337797,1381.1616571156499
54,215.5331297,1346,25840,1336.397789304375,25748.20292645311,1380,0.0013880950436841676,0.001812655513464794,1379.6034564769038
55,216.07288312499998,1336,26273,1336.0800471131593,26171.436159368903,1381,0.0018045474595981875,0.0017747790403360793,1379.377584996236
56,216.61253119999998,1339,26690,1336.444653333006,26607.243335069365,1390,0.0020117549603565934,0.0017547324339507973,1380.2062334367442
57,217.152073925,1354,26983,1336.9539060907125,27057.05993340681,1395,0.001599750282882672,0.001760287154915686,1381.5857890325676
58,217.69151129999997,1351,27189,1337.6930847810565,27526.49448458576,1391,0.0015481074386562428,0.0017613812807924611,1382.9861605019098
59,218.230843325,1331,27591,1338.189290810638,28014.811728464432,1386,0.0020944402132520943,0.0017481679063500388,1384.0575550974843
60,218.77006999999998,1332,28162,1338.448458628709,28516.653536885904,1389,0.0021244875139768914,0.0017601903882359228,1385.4102697682579
61,219.30919132499997,1338,28832,1339.216562096511,29024.412059162732,1381,0.0015639775951116607,0.0017434295648327157,1386.5881899929518
62,219.84820729999998,1335,29285,1339.6496862895845,29539.10965140716,1376,0.0014669051878354203,0.0017099674519808921,1387.2010238057221
63,220.38711792499998,1341,29649,1339.8814922195036,30071.284785611777,1383,0.001483679525222552,0.0016901133633213223,1387.8848898049523
64,220.9259232,1352,30288,1340.0727083285885,30628.7006953719,1398,0.0015897152336190213,0.0016488651090241328,1388.1100591179604
65,221.464623125,1358,30877,1340.2597340822865,31200.96280776402,1399,0.0013889359395643484,0.001595417710425581,1387.9405875557504
66,222.0032177,1353,31261,1340.190785748236,31777.087929510817,1389,0.0012036913200481477,0.001579054913888851,1388.1043058732662
67,222.54170692499997,1347,31690,1339.8280595256713,32353.01868671935,1388,0.001351217743795933,0.0015901462924202718,1388.523069605174
68,223.0800908,1347,32165,1339.446148270603,32931.94239960072,1385,0.0012330456226880395,0.0015950340926067846,1388.9868626695695
69,223.61836932499997,1338,32578,1339.3039479942663,33511.51577612112,1377,0.0012483994878361075,0.0015760007452843682,1389.2516931300554
70,224.1565425,1335,33298,1339.3970871367162,34085.058076059955,1375,0.0012514469855770735,0.0015182249201607947,1388.9314593761767
71,224.69461032499999,1333,33962,1339.7062900631695,34650.284196696884,1378,0.0013791412547120659,0.0014552970088274719,1388.5628440055002
72,225.23257279999999,1326,34672,1339.9320709415585,35201.76182925933,1374,0.0014394530078570143,0.0014006643947405467,1388.040612471377
73,225.77042992499997,1328,35640,1339.8310720514364,35733.04858547124,1376,0.0013989274889251574,0.0013631028079002252,1387.5254479149885
74,226.30818169999998,1322,36280,1339.4314480508929,36236.19595007745,1374,0.001487499284856113,0.0013560600652485098,1387.433305397604
75,226.84582812499997,1315,36742,1338.7232100387068,36713.588371196834,1369,0.0015242611567448557,0.0013403059972703993,1386.8522503340694
76,227.3833692,1327,37318,1337.7703232236033,37160.0994360001,1388,0.0016948681614848157,0.0013345047890766456,1386.3165643615673
77,227.92080492499997,1334,37640,1336.5798772338867,37570.57704591198,1398,0.0017627940285352283,0.0013490694023488088,1385.9825137601945
78,228.45813529999998,1358,37833,1336.0628100296467,37944.3223629067,1426,0.001864290610006854,0.0013533389102144897,1386.0230356293196
79,228.99536032499998,1373,38091,1336.337674692493,38269.58424879312,1444,0.001933656517239501,0.001340353512416784,1386.405513148629
80,229.53248,1357,38502,1336.339056377242,38536.50909420298,1413,0.0015076053304617042,0.0013248177652363563,1386.3834288432085
81,230.069494325,1336,39175,1336.004643366755,38748.43330539689,1385,0.0012949602262216232,0.0013162154092671119,1386.145507259481
82,230.60640329999998,1322,39612,1335.7271738883976,38897.58191578443,1369,0.0012274745364324888,0.0013236257730401017,1386.2800742938418
83,231.143206925,1316,39886,1335.937189970302,38969.02622935892,1372,0.0014519056261343012,0.0013137585683973356,1386.3865546218221
84,231.67990519999998,1329,39956,1335.9471335703838,38959.79295114197,1377,0.0012426541020529682,0.0013036800690977646,1386.1824729891691
85,232.216498125,1340,39947,1335.116423928036,38878.95179958701,1380,0.001036081539617168,0.001318914006394632,1385.6816462433765
86,232.75298569999998,1333,40036,1334.3807107748507,38730.77893043935,1383,0.0012918895176084542,0.0013287304054283853,1385.1222904255778
87,233.289367925,1336,40125,1333.996828920222,38514.688396112426,1381,0.0011601227152027637,0.0013267512072246423,1384.4974971120257
88,233.8256448,1336,39978,1333.643366780649,38221.542073432414,1377,0.0010610216862481237,0.001332969378767418,1383.9397041835336
89,234.36181632499998,1338,39484,1333.3769960814257,37846.48687399415,1379,0.0010748178052744717,0.0013673873400612945,1383.9212439692592
90,234.89788249999998,1333,38862,1333.3248318194949,37406.18310720443,1383,0.001332303018998641,0.0014070075503881945,1384.1582821807706
91,235.433843325,1328,38309,1333.3642891118454,36907.26265600509,1385,0.001541332035369514,0.0014358832594579323,1384.1317583636965
92,235.9696988,1327,37795,1333.4539853677063,36341.02679562321,1383,0.001535592848524734,0.0014622019586688958,1383.9363065980845
93,236.505448925,1336,37084,1333.414414822507,35708.94525357244,1378,0.0011748909029875797,0.0014801792134160388,1383.3428616729443
94,237.04109369999998,1341,36377,1332.909148565061,35019.517656118376,1377,0.0010275145564562164,0.0015061084164716197,1382.3119209947865
95,237.576633125,1344,35580,1332.0811796416424,34273.03241296453,1377,0.0009638976515948125,0.0015560886756599078,1381.3947767786094
96,238.11206719999998,1338,34694,1331.4611882488591,33479.694670320314,1379,0.0012291641683655115,0.0016036696380544247,1380.5324242904444
97,238.64739592499998,1327,33777,1331.1647149425553,32653.04208475781,1389,0.0019106317411402157,0.0016549889443523062,1380.0488119775946
98,239.1826193,1321,32646,1330.9050714625218,31810.18786382416,1387,0.0021069433359936153,0.0017109032215247896,1379.7100500577326
99,239.71773732499997,1322,31621,1330.9387981607483,30970.10822442125,1381,0.0019472589854450642,0.0017512025732390175,1379.2323495435646
100,240.25275,1329,30429,1330.4019117080543,30130.01596865103,1387,0.001993127147766323,0.0017976205732924031,1378.3679132029908
101,240.787657325,1344,29239,1329.5276676708165,29294.027656344995,1388,0.0015773436099659438,0.0018570823716205533,1377.5756642279289
102,241.3224593,1348,28108,1329.1910575550721,28477.381843302817,1389,0.001532137518684604,0.0019215586142491564,1377.556954857388
103,241.85715592499997,1331,26992,1329.0340211556068,27686.382228362516,1383,0.0020264214177155996,0.001992247624252228,1378.0081089039124
104,242.3917472,1322,26052,1329.5639085822756,26917.585494574672,1371,0.001981399110392236,0.0020552058801840615,1378.9630116197159
105,242.92623312499998,1325,25280,1330.592470950619,26186.636843416112,1370,0.001878522229179712,0.0021119923159259404,1380.2873904278429
106,243.46061369999998,1325,24326,1331.6066275566575,25517.29418559828,1375,0.0021738185296291466,0.0021568947037886015,1381.2875942829698
107,243.994888925,1324,23548,1331.9821966522202,24919.18491925024,1369,0.0020248380129589635,0.0021911228379349374,1381.3765204194622
108,244.52905879999997,1322,23128,1331.7056331966496,24388.670638066076,1374,0.0023846647711639,0.0022219187944065096,1380.7967564383978
109,245.063123325,1327,22719,1331.2332782169215,23936.09803166504,1381,0.002524308152580404,0.0022590876775474187,1380.4110398876267
110,245.59708249999997,1336,22202,1330.9451403202534,23574.6222564493,1387,0.002444167545288987,0.002285147860860387,1379.943101768983
111,246.130936325,1333,21751,1330.8523635869187,23320.76644997577,1394,0.0029875599960818887,0.002300564488339885,1379.475594011163
112,246.66468479999997,1326,21523,1330.815760266345,23182.597725882366,1390,0.0031687874436797546,0.002317724402781476,1379.3481392556757
113,247.19832792499997,1320,21532,1331.0783709710045,23165.00530023286,1382,0.003067484662576687,0.0023224322666175207,1379.2318965321713
114,247.7318657,1321,21781,1331.0690615868734,23266.097102991695,1368,0.002297165200391007,0.0023199410933441534,1378.801513058027
115,248.265298125,1325,21939,1331.1232870506437,23481.619379826956,1373,0.0023285146017269815,0.002326911133313709,1379.1863915377207
116,248.79862519999998,1331,22031,1331.330041450517,23802.37482162631,1385,0.0026086956521739132,0.0023425639451803574,1380.3369045731238
117,249.33184692499998,1328,22423,1331.449319350356,24216.468323177865,1383,0.0026072529035316427,0.002361932241819452,1381.7035493442397
118,249.8649633,1329,23058,1331.5115178146475,24739.647240027614,1398,0.003175479773574486,0.0023789899357474654,1383.1598903712163
119,250.397974325,1349,23734,1331.429885161586,25377.013545040172,1415,0.0029484029484029483,0.002387512968122147,1384.5471924618637
120,250.93087999999997,1357,24645,1331.366531518242,26130.15039978205,1408,0.0021899690827894194,0.0023848225708692256,1385.857777073067
121,251.46368032499998,1352,25901,1331.809599311397,26988.44562730701,1407,0.0022404171249338057,0.00236612253786898,1387.2873904278426
122,251.99637529999998,1342,27072,1332.1619289224868,27927.965367278455,1399,0.0022153128643606686,0.002353753973303162,1389.109538154858
123,252.52896492499997,1334,28113,1332.280074293843,28942.027067430197,1390,0.0020911908585085326,0.0023590968347745266,1391.4599877686658
124,253.06144919999997,1324,29191,1332.2489750616971,30023.293800538508,1396,0.002583701151900097,0.0023694472602081057,1393.9973272327534
125,253.593828125,1335,30473,1332.326281455953,31177.155337606146,1408,0.0025053195140366533,0.002382361879632686,1397.1797096196703
126,254.1261017,1337,31850,1332.6817821467953,32391.627307526163,1401,0.0020974666535575,0.002415701945195335,1402.0198192484272
127,254.65826992499998,1328,33234,1333.2678203356559,33644.66712722761,1394,0.0020685764433022004,0.0024501054974112486,1407.6955763437181
128,255.19033279999996,1327,34532,1333.6714081858904,34923.08933384608,1390,0.0018973046227977715,0.002489826222472865,1413.7560080635758
129,255.722290325,1329,36180,1333.7160751092633,36223.16815782847,1408,0.0022667929184241485,0.0025512362464034477,1420.506013726218
130,256.2541425,1333,37733,1333.634125348227,37539.96142607915,1429,0.0026373626373626374,0.0026220739382458004,1427.9438718883507
131,256.78588932499997,1323,38976,1333.682076604201,38858.93852635319,1425,0.0027089474942235676,0.0026974909181851315,1436.0385965706762
132,257.3175308,1325,40531,1333.7122471629905,40157.50302385028,1439,0.00290771820639698,0.002799248560555195,1445.316224603021
133,257.849066925,1332,42407,1333.5028199958974,41420.40453917336,1455,0.002994522215459525,0.0029173471689597583,1455.252599152841
134,258.3804977,1330,44174,1333.317651588912,42652.34567034279,1461,0.003057604331995145,0.0030613176514593266,1466.20442139117
135,258.91182312499996,1335,45605,1333.5100455276197,43855.45371356006,1481,0.0032979444318951886,0.0032253439824092276,1478.5461731862272
136,259.4430432,1341,46597,1333.9454574282286,45013.27389068747,1500,0.003513346296623652,0.003410935173670064,1492.336247706601
137,259.974157925,1334,47562,1334.3142313528926,46118.722236063346,1510,0.0038072164056416023,0.00364259252181404,1507.927857935598
138,260.5051673,1327,48508,1334.35729008582,47174.119436452915,1528,0.004260189483054619,0.00392403473848163,1525.610047792673
139,261.03607132499997,1337,49391,1334.29500101925,48164.00944528663,1558,0.0045989927997669286,0.0042424823012827744,1544.9038256811864
140,261.56687,1339,50091,1334.2085437948508,49086.60196153839,1557,0.004471611421069905,0.004564742818215204,1564.8543568370444
141,262.097563325,1330,50935,1334.1345217331962,49939.82853518671,1559,0.004616470113899808,0.004909926001610985,1585.965752338641
142,262.62815129999996,1327,52255,1333.840539989555,50709.09877913332,1579,0.004948162111215834,0.005291463443396084,1608.2826791093487
143,263.158633925,1326,53079,1333.323268930188,51401.52741851359,1602,0.005333024172511739,0.005708446204712275,1632.0812928944852
144,263.6890112,1340,53409,1332.9864323087472,52017.04527848774,1630,0.0055695327354087845,0.006188255400168932,1658.5101134793224
145,264.219283125,1348,53463,1333.4202813200495,52539.81970146448,1666,0.006101890050849084,0.00670412683096506,1687.0713719449723
146,264.7494497,1338,53519,1334.0060250515044,52981.10410201715,1701,0.006956555067936606,0.007227333125685323,1716.4290017893625
147,265.27951092499995,1338,54052,1334.3324197603313,53362.63552968255,1733,0.007493265546154722,0.007789522136394368,1747.4980407256905
148,265.8094668,1336,54557,1334.799021495365,53676.63020679867,1774,0.008229834088047951,0.008389969452208866,1780.4835670116763
149,266.33931732499997,1334,54811,1335.1953158621682,53906.30317787389,1821,0.009106718776296352,0.009015045317074467,1814.1807062447272
150,266.8690625,1329,54613,1335.1198894651943,54045.349928649666,1852,0.009815329179491029,0.009699003800197151,1849.0882239687976
151,267.398702325,1324,54201,1335.4122403678195,54109.8877664263,1861,0.010155644230951074,0.010422106760404668,1885.7031869351154
152,267.9282368,1331,54069,1335.650139300978,54115.52710140556,1894,0.010675414312260609,0.011166520380852094,1923.3169041201018
153,268.457665925,1345,54006,1335.6004439511398,54058.59491721113,1947,0.01143160973016084,0.011945629501354327,1961.847176606454
154,268.9869897,1344,53622,1335.775374300638,53932.62737547745,1987,0.012299628906997206,0.012746583024288506,2000.9757185892843
155,269.516208125,1340,53086,1336.3495209404261,53757.070465921184,2022,0.013179762686970974,0.013574627534625815,2041.1200933203077
