,x_(nm),baseline_dark,baseline_light,baseline_dark_smoothed,baseline_light_smoothed,raw_signal,calibrated_signal,calibrated_signal_smoothed,raw_signal_smoothed
0,186.23,1272,1277,1262.87798931861,4423.341725401679,1192,-16.0,,1195.6091364137967
1,186.775442325,1267,1267,1266.7765350939594,3337.9588251104515,1196,-inf,,1198.3725654622426
2,187.3207793,1270,1275,1270.548685579698,2389.7938500541472,1209,-12.2,,1201.1993550847196
3,187.86601092499998,1276,1285,1274.194247732958,1573.9994752101907,1211,-7.222222222222222,,1204.0833471301753
4,188.41113719999998,1286,1281,1277.7130285108717,885.728375556007,1210,15.2,,1207.0183834475567
5,188.956158125,1285,1286,1281.1048348705708,320.1332260690215,1199,-86.0,,1209.9983058858113
6,189.50107369999998,1276,1293,1284.3694737691878,-127.63329827334019,1190,-5.0588235294117645,,1213.0169562938863
7,190.045883925,1276,1298,1287.506752163855,-462.41852249365365,1210,-3.0,,1216.068176520729
8,190.59058879999998,1284,1305,1290.5164770117042,-689.0697716144932,1228,-2.6666666666666665,,1219.1458084152864
9,191.135188325,1296,1314,1293.3984552698676,-812.4343706584332,1242,-3.0,,1222.2436938265064
10,191.67968249999998,1305,1314,1296.1524938954776,-837.3596446480497,1242,-7.0,,1225.3556746033357
11,192.22407132499998,1294,1303,1298.778399845666,-768.6929186059151,1229,-7.222222222222222,,1228.475592594722
12,192.7683548,1292,1304,1301.2759800775652,-611.2815175546057,1227,-5.416666666666667,,1231.5972896496123
13,193.312532925,1300,1306,1303.6450415483073,-369.97276651669745,1227,-12.166666666666666,,1234.714607616954
14,193.8566057,1301,1301,1305.8853912150246,-49.6139905147611,1233,-inf,,1237.8213883456945
15,194.400573125,1294,1300,1307.996836034849,344.9474854286236,1240,-9.0,,1240.9114736847807
16,194.9444352,1298,1299,1309.9791829649128,808.8643362908842,1247,-51.0,,1243.9787054831604
17,195.488191925,1314,1305,1311.832238962348,1337.2892370494465,1256,6.444444444444445,,1247.0169255897808
18,196.0318433,1324,1318,1313.5558109842868,1925.3748626817346,1255,11.5,,1250.019975853589
19,196.575389325,1320,1322,1315.1497059878616,2568.273888165175,1258,-31.0,,1252.9816981235322
20,197.11883,1310,1309,1316.6137309302042,3261.1389884771916,1258,52.0,,1255.8959342485578
21,197.662165325,1320,1310,1317.9476927684468,3999.1228385952154,1262,5.8,,1258.7565260776132
22,198.2053953,1326,1310,1319.1513984597218,4777.378113496662,1257,4.3125,,1261.5573154596455
23,198.74851992499998,1318,1311,1320.2246549611614,5591.057488158962,1243,10.714285714285714,,1264.2921442436023
24,199.2915392,1324,1325,1321.1672692298973,6435.313637559533,1245,-79.0,,1266.9548542784305
25,199.83445312499998,1341,1337,1321.9790482230376,7305.299236675663,1265,19.0,,1269.539287413054
26,200.3772617,1342,2442,1322.703209585696,8065.419986862515,1271,-0.06454545454545454,,1271.578291694012
27,200.919964925,1323,6979,1322.827515912,8840.188656594544,1270,-0.00937057991513437,-inf,1273.3542322589167
28,201.4625628,1326,12309,1322.644589911411,9633.733334843186,1278,-0.004370390603660202,-inf,1275.2822260979617
29,202.005055325,1332,14507,1322.5908854107427,10443.896600149294,1279,-0.004022770398481973,-inf,1277.298783664385
30,202.5474425,1323,15451,1322.7450451878613,11263.176221431753,1285,-0.0026896942242355605,-inf,1279.6242950009946
31,203.089724325,1321,16142,1322.6836168429384,12090.710684273476,1293,-0.0018892112543013291,-inf,1281.2842193480922
32,203.63190079999998,1323,16824,1322.119187297535,12928.792430179372,1296,-0.0017418231081865686,-inf,1282.0936148043877
33,204.173971925,1320,17323,1321.4586740356265,13773.65811230126,1294,-0.0016246953696181965,-inf,1283.589254569728
34,204.71593769999998,1321,17661,1320.7483068698925,14616.570296042664,1299,-0.0013463892288861688,inf,1285.6524496590841
35,205.257798125,1323,17911,1320.4184013227682,15450.602459851569,1291,-0.0019291053773812395,inf,1287.9517542865956
36,205.7995532,1322,18282,1320.4342567215313,16269.837980474897,1289,-0.001945754716981132,inf,1290.2365625495233
37,206.34120292499998,1321,18865,1319.9507123603908,17076.155949171793,1297,-0.0013679890560875513,inf,1291.8604271897188
38,206.88274729999998,1321,19495,1319.2034247661074,17868.754173367117,1294,-0.0014856388246946186,inf,1293.0233074361572
39,207.424186325,1326,19826,1318.6979999546736,18637.295816439426,1292,-0.0018378378378378379,inf,1293.4197150558089
40,207.96552,1320,20034,1318.169562164463,19377.933090216844,1282,-0.002030565352142781,0.5385340330984539,1293.947495979499
41,208.506748325,1313,20322,1317.1063897256763,20092.3754784929,1285,-0.0014729864800883791,0.5410673339429204,1294.7936759609256
42,209.0478713,1312,20706,1315.6420756981784,20777.152891344816,1301,-0.0005671857275446014,-0.8580964969721651,1295.3952750911435
43,209.588888925,1305,21195,1314.4496591089014,21428.0648712311,1306,5.0276520864756156e-05,-0.6898099463761885,1296.034904527824
44,210.12980119999997,1291,21555,1313.969308478083,22041.482842193054,1303,0.0005921831819976313,-0.31890393086038576,1296.8295318127002
45,210.670608125,1291,21954,1313.5232734603023,22604.78135405062,1297,0.00029037409863040217,-1.2549774437615193,1297.9999999999752
46,211.2113097,1303,22324,1312.9514598291898,23115.100138168033,1277,-0.0012368583797155227,0.3172850846586517,1299.0533194409588
47,211.751905925,1311,22496,1312.6441142494482,23568.13574486353,1274,-0.0017465187632759028,0.7013048875864847,1299.8559650274958
48,212.29239679999998,1315,22756,1312.2596887811476,23953.851548165974,1298,-0.0007928734667226342,1.0808226668399648,1300.1407732904233
49,212.83278232499998,1314,23144,1311.6193118756685,24278.707060182092,1302,-0.0005497022446174989,1.7039402209262655,1299.8580262293349
50,213.37306249999997,1309,23586,1311.2482049423293,24543.16340120907,1296,-0.0005835615208511021,-0.5053483938975432,1299.4751863009105
51,213.91323732499998,1306,24156,1311.1278171645768,24740.403497247484,1302,-0.000175054704595186,0.0012508604968567419,1298.8609255022513
52,214.45330679999998,1314,24765,1311.021631294002,24907.96992004301,1310,-0.00017056841925717453,-0.00032270513476698187,1298.0859589118418
53,214.993270925,1321,25171,1310.1797775713806,25158.115767061056,1315,-0.00025157232704402514,-0.00047268528818696407,1296.796258125867
54,215.5331297,1317,25547,1309.551360166683,25535.58567577926,1312,-0.0002063557573256294,-0.0005152904076162379,1295.3707445241998
55,216.07288312499998,1315,26065,1310.151147251328,25963.812204126436,1296,-0.0007676767676767677,-0.0005660359569969239,1294.7847063353397
56,216.61253119999998,1317,26527,1311.1794151622662,26406.61550657948,1300,-0.0006743355811186037,-0.0005773818111225545,1295.3900654601216
57,217.152073925,1320,26792,1312.3994880971004,26864.60651430332,1311,-0.00035332914572864323,-0.0005684934823744379,1296.530884051709
58,217.69151129999997,1317,27038,1313.5565924482746,27341.80665473684,1299,-0.0006998172699350725,-0.0005518235794733136,1297.8879023307186
59,218.230843325,1321,27450,1314.196652245779,27837.983533035323,1290,-0.0011864212178039726,-0.000530541688216657,1298.9043919454325
60,218.77006999999998,1316,27993,1314.88645269426,28349.428775283155,1290,-0.0009746223338456348,-0.0005041215433009456,1300.0485401707606
61,219.30919132499997,1310,28640,1315.744999886722,28867.26374323259,1285,-0.0009147457006952067,-0.0005047113593879686,1300.7895762078167
62,219.84820729999998,1312,29111,1316.697954653534,29391.862601643872,1287,-0.000899312924925357,-0.0005172999204066218,1301.2968357153934
63,220.38711792499998,1314,29490,1317.7724297265822,29934.118507779895,1292,-0.0007808063600227143,-0.0005150661100881406,1302.222247389497
64,220.9259232,1309,30101,1318.6446125619807,30505.03864187126,1311,6.94637399277577e-05,-0.0005093511561664522,1303.2094951187776
65,221.464623125,1306,30736,1319.540351989827,31092.992751817113,1307,3.397893306150187e-05,-0.0005139496402520012,1304.1222677750097
66,222.0032177,1312,31198,1320.2965412579872,31683.82690434603,1297,-0.0005019072475406545,-0.0005351571666969728,1304.5085958911616
67,222.54170692499997,1326,31636,1321.0603411175537,32274.32705157473,1307,-0.000626855823160673,-0.0005549201637444085,1304.7693718996782
68,223.0800908,1333,32077,1321.8344016851768,32867.11046682761,1312,-0.0006830601092896175,-0.0005547575623034667,1305.3486149176401
69,223.61836932499997,1321,32498,1322.2109447552352,33461.62578993797,1303,-0.0005773486865317381,-0.0005397040149652331,1305.7511834922398
70,224.1565425,1317,33211,1322.0995719042082,34051.69931368708,1288,-0.0009092619301436007,-0.0005053774496440536,1306.0459580058186
71,224.69461032499999,1310,33895,1321.6400597974784,34634.05307028405,1285,-0.0007672241829062452,-0.0004673926435163742,1306.1783279349227
72,225.23257279999999,1309,34626,1321.0332963373776,35201.1868898496,1291,-0.0005402647297175616,-0.000463780359835558,1305.5739427846358
73,225.77042992499997,1318,35608,1320.6362318512056,35745.29096921719,1298,-0.0005832604257801109,-0.00047777399586814725,1304.8344696368863
74,226.30818169999998,1320,36270,1320.6828014224304,36264.419737705706,1296,-0.0006866952789699571,-0.0004805011759192729,1304.656458809914
75,226.84582812499997,1318,36777,1320.5931731182789,36758.74864662776,1292,-0.0007332412081558984,-0.00048261486763334643,1304.32317832791
76,227.3833692,1331,37349,1319.9511427212142,37222.889170761926,1314,-0.0004719862291076684,-0.0004776631573418021,1303.6645903644228
77,227.92080492499997,1340,37662,1319.1839905773377,37651.47283064097,1325,-0.0004129728539177358,-0.00045646285538350647,1303.2791229699178
78,228.45813529999998,1355,37945,1318.7655892545445,38041.054066909055,1344,-0.0003006285870456409,-0.00043634872944415794,1303.2262565403269
79,228.99536032499998,1360,38295,1318.60513261906,38379.32202314814,1363,8.12237714904562e-05,-0.00041755987487059125,1303.4227728827132
80,229.53248,1332,38719,1318.5940564904954,38657.7668803363,1342,0.0002674726509214433,-0.00039642513723594955,1303.852703345464
81,230.069494325,1311,39338,1318.8033704047405,38880.25454710111,1309,-5.259420937754753e-05,-0.0004048840414432736,1303.8205395365444
82,230.60640329999998,1301,39762,1318.992480010847,39038.290765362,1297,-0.00010400145602038429,-0.0004172211164808872,1303.7211714874381
83,231.143206925,1303,40065,1319.2571519173455,39117.569254115995,1290,-0.00033538001135132345,-0.0004108509150596231,1304.1839452761985
84,231.67990519999998,1317,40170,1319.1954744161562,39115.97501642091,1297,-0.0005147607649344967,-0.0004040127070114213,1304.3291354277308
85,232.216498125,1317,40155,1318.889918231418,39042.67489637289,1296,-0.0005407075544569751,-0.0004148393702531879,1303.805975220252
86,232.75298569999998,1314,40245,1318.3241296518354,38900.12351355562,1300,-0.00035961059310061393,-0.00041422581490127493,1303.2972207750774
87,233.289367925,1310,40352,1317.5134204624994,38686.67147613688,1304,-0.0001536806516059628,-0.0004020307637097411,1302.790097170919
88,233.8256448,1304,40224,1316.9321388932678,38394.11848512916,1296,-0.00020554984583761563,-0.0004031647373637039,1302.2514213232214
89,234.36181632499998,1310,39657,1316.338761919837,38017.02695417717,1288,-0.0005737085039246877,-0.0003993103544043159,1301.8394074610728
90,234.89788249999998,1315,39005,1315.7108654782417,37571.7703232229,1284,-0.0008224993366940833,-0.000372123249802286,1302.10281093567
91,235.433843325,1315,38502,1315.0506466737384,37067.37035946383,1286,-0.0007798424180493184,-0.000358981585575826,1302.0871593920338
92,235.9696988,1307,37996,1314.5461505356607,36496.790142471385,1287,-0.0005451225162855351,-0.000367547486214346,1301.663706992206
93,236.505448925,1303,37311,1314.0192529841875,35861.013952750225,1288,-0.0004165740946456343,-0.0003802395048436417,1301.0975107023692
94,237.04109369999998,1306,36568,1313.3498153978321,35165.893474370205,1298,-0.000226873121206965,-0.00038039521751151624,1300.6449749710955
95,237.576633125,1303,35714,1312.5041563795078,34411.74925819319,1299,-0.00011624189939263608,-0.0003592853634616236,1300.5299780289224
96,238.11206719999998,1308,34803,1311.6607171170103,33609.58255000049,1298,-0.0002985520226899537,-0.00034315550720216253,1300.224467145324
97,238.64739592499998,1321,33918,1310.7404244716502,32772.731613399446,1300,-0.0006442310642083627,-0.00033724897609886337,1299.6017803347506
98,239.1826193,1321,32875,1309.8198147183152,31918.764887086298,1296,-0.0007922925778031312,-0.0003311933858483474,1299.0125710661373
99,239.71773732499997,1309,31735,1309.2047838002875,31068.46589956677,1297,-0.00039439952672056796,-0.0003339024638586531,1298.4561145212554
100,240.25275,1311,30477,1308.790368977755,30219.236857006377,1306,-0.0001714324898854831,-0.0003473044251930944,1297.7374345964552
101,240.787657325,1324,29236,1308.352850574167,29375.981743640292,1312,-0.0004299226139294927,-0.00035568797731161633,1297.0954721510996
102,241.3224593,1325,28131,1308.2519422863234,28555.435321297784,1310,-0.000559576214280385,-0.0003567328233818658,1297.016081904435
103,241.85715592499997,1321,27053,1308.636752814308,27756.315137375168,1309,-0.000466345406497746,-0.00035505416101374107,1297.4828648440257
104,242.3917472,1320,26069,1309.4406894833153,26979.51675009575,1309,-0.000444462402521314,-0.00033454796209093755,1298.994246755281
105,242.92623312499998,1311,25235,1310.1787809463156,26244.31350653419,1301,-0.0004179903026249791,-0.0002875199726170475,1301.4019117080545
106,243.46061369999998,1299,24332,1310.449364651496,25572.617748985896,1301,8.683193678635003e-05,-0.0002455412944413635,1303.1519400212667
107,243.994888925,1298,23611,1310.1429477451109,24972.012956125374,1307,0.0004033523058306817,-0.00022460957613629816,1303.493374708349
108,244.52905879999997,1295,23156,1309.668984574937,24440.073704953214,1300,0.00022871780796852843,-0.0002058075802493365,1303.5308614011392
109,245.063123325,1300,22747,1309.7363700196806,23988.53507440666,1299,-4.662656781834289e-05,-0.00019507186552729418,1303.7302770164422
110,245.59708249999997,1311,22197,1310.028992729142,23631.850143830667,1312,4.787896198410418e-05,-0.00018722260936734095,1304.0036693922602
111,246.130936325,1315,21729,1310.1515776121519,23383.65344628373,1311,-0.00019594396002743216,-0.00018001206695954268,1304.0477927019615
112,246.66468479999997,1317,21519,1310.4473261002265,23254.15203062313,1304,-0.0006435006435006435,-0.00018216765075906134,1303.7464948243198
113,247.19832792499997,1310,21558,1310.9550612697658,23248.96477836373,1304,-0.00029632556301856976,-0.00017885375019607348,1303.7988855919475
114,247.7318657,1311,21864,1310.9293755237695,23364.615891639227,1302,-0.00043789227849948915,-0.00016242562186256465,1303.892364492942
115,248.265298125,1305,22051,1310.7767786359575,23592.55903870937,1297,-0.0003856165043863877,-0.00015115792442538874,1303.678293959068
116,248.79862519999998,1299,22170,1311.1104215270764,23924.827855670115,1303,0.00019165349048919553,-0.0001473577220185013,1303.6399465446307
117,249.33184692499998,1295,22579,1311.3582867108855,24352.443656707506,1307,0.0005638037962788949,-0.00013661038026869192,1303.7970282452352
118,249.8649633,1308,23184,1311.3554780402476,24889.580149040274,1324,0.0007313951362223441,-0.00011711116280739697,1304.035584044914
119,250.397974325,1323,23871,1311.1011121429453,25544.732995084334,1331,0.0003547986517651233,-9.386107516315667e-05,1304.1865500917097
120,250.93087999999997,1321,24836,1310.6240684952975,26316.499716867373,1315,-0.0002551562832234744,-6.08009011159565e-05,1304.5782690434412
121,251.46368032499998,1319,26109,1310.2506512038526,27193.225146661916,1306,-0.0005244050020169423,-2.101655766067897e-05,1305.3931232870257
122,251.99637529999998,1315,27337,1309.8833948673557,28151.869759223908,1311,-0.00015371608638844054,2.379962531328078e-05,1306.5476454732586
123,252.52896492499997,1313,28433,1309.721488595413,29186.903893632363,1314,3.687315634218289e-05,6.260018432142697e-05,1307.801127998344
124,253.06144919999997,1311,29503,1309.6737638451355,30292.20437608948,1320,0.0003192395005675369,9.801053437246595e-05,1309.1697886701602
125,253.593828125,1306,30778,1309.5337606740559,31466.223515820824,1325,0.0006446796959826275,0.0001492376791863301,1311.1842170830344
126,254.1261017,1304,32147,1309.720559922057,32699.457518855972,1319,0.00048633401420095323,0.00021783920114448358,1314.4643366780424
127,254.65826992499998,1306,33413,1310.0364674171306,33970.41627216859,1324,0.0005606254087893606,0.00030009674381147484,1318.9085596502503
128,255.19033279999996,1301,34844,1310.1655303630635,35268.16811252735,1322,0.0006260620695823271,0.00038761780990805147,1323.685587442499
129,255.722290325,1307,36607,1310.1986228453395,36586.67795419985,1313,0.00016997167138810198,0.000480099339071725,1328.7591564927602
130,256.2541425,1324,38183,1310.2285668984323,37920.7932455994,1312,-0.00032556499091131066,0.0005914422360070353,1335.0606355749592
131,256.78588932499997,1321,39445,1310.4608937914538,39254.35443611331,1325,0.00010492078480747036,0.0007096630572847118,1342.0838524088624
132,257.3175308,1324,41019,1310.5072821581211,40567.6067861099,1350,0.0006549943317798212,0.0008536016466269191,1349.9187750571668
133,257.849066925,1321,42908,1310.2365172483835,41847.84146866213,1357,0.0008656551326135571,0.0010255945209279862,1358.5571587125157
134,258.3804977,1303,44684,1309.6117465854015,43096.69412670646,1351,0.00110647518498882,0.0012096617204791797,1367.5919046863767
135,258.91182312499996,1308,46088,1308.933294072321,44315.67281252037,1362,0.001205895489057615,0.00140705600702145,1377.6523364062343
136,259.4430432,1315,47111,1308.5037260186843,45485.84939636144,1378,0.0013756659970303082,0.0016275526238634503,1389.1787129946051
137,259.974157925,1307,48038,1308.4156153026997,46604.94373598407,1407,0.0021399071280306433,0.001862274013171285,1402.2166753493582
138,260.5051673,1294,48929,1308.860087431174,47673.60984393666,1416,0.002561142017424163,0.0021004460624068177,1416.7173208905933
139,261.03607132499997,1303,49808,1309.3365874651497,48674.05218691156,1424,0.0024945881867848674,0.0023564686858827183,1431.9603841536343
140,261.56687,1312,50555,1309.6336496862646,49606.10614056849,1444,0.002680584042401966,0.002625624756507337,1447.8883326915393
141,262.097563325,1300,51444,1309.446601281997,50467.56746472076,1452,0.0030312699425654116,0.0029216181306836123,1464.8578223742043
142,262.62815129999996,1302,52797,1308.810573285893,51244.29108246975,1466,0.0031847752208952326,0.0032553429300307265,1482.8523862374855
143,263.158633925,1301,53677,1307.8703028380912,51942.1424494316,1485,0.0035130594165266532,0.0036165823942622853,1501.6960293551094
144,263.6890112,1303,53968,1306.982989422159,52559.93635189824,1513,0.003987467957846767,0.004023185127640237,1522.6803098597638
145,264.219283125,1312,54014,1306.4519468164376,53085.63025209983,1544,0.004402109976850974,0.004458854643588641,1545.489229654096
146,264.7494497,1304,54063,1306.0084033613193,53531.29681306382,1564,0.004928069144600921,0.004896180640573909,1568.9018097804858
147,265.27951092499995,1307,54577,1305.6414867833676,53916.98165303754,1587,0.005256241787122208,0.005344475017448799,1593.4194205983974
148,265.8094668,1314,55076,1305.568053636524,54236.53720355963,1625,0.0057847550314348425,0.005831497436364804,1619.992072300587
149,266.33931732499997,1313,55349,1305.6349181181656,54470.41196855996,1661,0.006440151010437486,0.006345449969763299,1647.5858343337022
150,266.8690625,1305,55204,1305.718679924775,54610.32372194056,1687,0.007087330006122563,0.006888381147793791,1675.8546512944479
151,267.398702325,1294,54794,1305.5629799089197,54673.82151351,1702,0.0076261682242990654,0.00746966512289839,1705.193254660322
152,267.9282368,1302,54643,1305.1159029649345,54678.47738340515,1719,0.007817626216231418,0.008071698127843599,1735.342589866102
153,268.457665925,1312,54550,1304.8815828217832,54617.6819860009,1759,0.008396258311732222,0.008704295451618275,1766.9257740831845
154,268.9869897,1315,54232,1304.5845206006682,54491.13332125199,1806,0.009278681709091597,0.009371318778027167,1799.5339871797432
