,x_(nm),baseline_dark,baseline_light,baseline_mirror,baseline_calibration,baseline_dark_smoothed,baseline_light_smoothed,raw_signal,calibrated_signal,calibrated_signal_smoothed,raw_signal_smoothed
0,186.23,1061,1058,0.3621226043733797,-0.12070753479112656,1037.7151155253255,3825.782694758304,1042,2.2934431610314046,,1185.4380665989981
1,186.775442325,1050,1059,1.18800459154587,0.1320005101717633,1045.2404159986838,2877.4892354490826,1035,-1.9800076525764496,,1136.3390503113026
2,187.3207793,1048,1051,1.908567993433533,0.6361893311445109,1052.2813873170614,2047.8285819085163,1032,-10.179029298312175,,1093.7546185318179
3,187.86601092499998,1055,1054,1.7279185264672412,-1.7279185264672412,1058.8525990108988,1332.7426071380228,1032,39.74212610874655,,1057.4718928371215
4,188.41113719999998,1056,1067,1.043047789334166,0.094822526303106,1064.9686206106371,728.1731841390206,1042,-1.3275153682434842,,1027.277994803791
5,188.956158125,1061,1067,0.840365554154959,0.14006092569249315,1070.6440216467167,230.0621859129269,1043,-2.5210966624648767,,1002.9600460084044
6,189.50107369999998,1064,1059,0.8202728553565946,-0.1640545710713189,1075.893371649579,-165.64851453883966,1030,5.577855416424843,,984.3051680275395
7,190.045883925,1073,1073,0.837733819880384,inf,1080.731240149664,-463.01704421486147,1055,-inf,,971.100482437774
8,190.59058879999998,1087,1083,0.8116271105193998,-0.20290677762984996,1085.172196677413,-666.1015301137209,1081,1.2174406657790997,,963.1331108156853
9,191.135188325,1093,1084,0.8262856362484797,-0.09180951513871997,1089.2308107632668,-778.9600992339997,1079,1.2853332119420797,,960.1901747378515
10,191.67968249999998,1105,1092,0.8012221689422371,-0.06163247453401824,1092.921651937666,-805.6508785742794,1089,0.9861195925442918,,962.0587957808503
11,192.22407132499998,1107,1082,0.7775424502505143,-0.03110169801002057,1096.2592897310515,-750.2319951331433,1074,1.0263560343306788,,968.5260955212593
12,192.7683548,1088,1076,0.7753865851703869,-0.06461554876419891,1099.2582936738638,-616.7615759091718,1059,1.8738509141617683,,979.3791955356563
13,193.312532925,1081,1072,0.7956261498651602,-0.08840290554057335,1101.9332332965441,-409.29774790094916,1061,1.768058110811467,,994.4052174006191
14,193.8566057,1091,1083,0.7908861747409445,-0.09886077184261806,1104.2986781295328,-131.89863810705447,1084,0.6920254028983264,,1013.3912826927253
15,194.400573125,1109,1102,0.7942231778648126,-0.1134604539806875,1106.369197703271,211.3776264739272,1092,1.9288277176716877,,1036.1245129885529
16,194.9444352,1113,1105,0.7947581770897779,-0.09934477213622224,1108.1593615481995,616.4729188434162,1095,1.7882058984520004,,1062.392029864679
17,195.488191925,1116,1118,0.7914877943554887,0.39574389717774433,1109.6837391947588,1079.3291120028284,1118,0.7914877943554887,,1091.980954897682
18,196.0318433,1119,1126,0.7911116722494277,0.11301595317848967,1110.9569001733898,1595.8880789535838,1127,0.9041276254279174,,1124.6784096641395
19,196.575389325,1115,1109,0.7900325230816138,-0.13167208718026896,1111.9934140145333,2162.091692697098,1114,0.13167208718026896,,1160.2715157406292
20,197.11883,1115,1091,0.798472358442206,-0.03326968160175858,1112.8078502486303,2773.881826234792,1092,0.7652026768404474,,1198.5473947037287
21,197.662165325,1120,1091,0.7981102791346143,-0.02752104410809015,1113.4147784061213,3427.2003525680802,1090,0.8256313232427045,,1239.293168130016
22,198.2053953,1118,1098,0.8040599544843242,-0.04020299772421621,1113.8287680174471,4117.989144698384,1108,0.4020299772421621,,1282.2959575960685
23,198.74851992499998,1102,1092,0.8074165803696804,-0.08074165803696805,1114.0643886130485,4842.190075627121,1099,0.24222497411090416,,1327.342884678464
24,199.2915392,1105,1096,0.8060625325032217,-0.08956250361146907,1114.1362097233666,5595.745018355703,1095,0.8956250361146907,,1374.2210709537808
25,199.83445312499998,1135,1123,0.8122546130835153,-0.06768788442362628,1114.0588008788209,6374.595845885403,1121,0.9476303819307679,-inf,1422.7176379985683
26,200.3772617,1139,2095,0.8144257223941842,0.0008519097514583517,1114.5587442523968,7066.570137488821,1183,0.03748402906416747,-inf,1467.3655348931745
27,200.919964925,1112,6115,0.8150182986479615,0.00016290591617988437,1114.4175632516942,7774.664907472274,1418,0.049849210351044615,inf,1512.3632924867768
28,201.4625628,1099,10696,0.8232603193402961,8.57830904803893e-05,1113.4993544587433,8498.174296133386,1682,0.05001154175006696,inf,1557.9558540396993
29,202.005055325,1100,12623,0.8194894939197722,7.111772055191984e-05,1113.1017463588994,9237.413961810962,1812,0.05063581703296693,inf,1604.6282588506792
30,202.5474425,1106,13523,0.8269202298982968,6.659581460081315e-05,1112.639493533241,9991.327504586548,1857,0.05001345676521068,inf,1652.767197444984
31,203.089724325,1105,14182,0.8298864771900701,6.34615337761008e-05,1111.7276722009346,10759.1308749913,1889,0.04975384248046303,inf,1701.9944506104005
32,203.63190079999998,1118,14854,0.8293789756785952,6.0379948724417236e-05,1110.6313393281628,11541.522911050994,1942,0.0497530777489198,inf,1752.1564248340512
33,204.173971925,1122,15337,0.8303112569560028,5.841092205107301e-05,1109.970916668533,12335.328410609289,1963,0.0491235854449524,0.1401745976935298,1804.3529638270059
34,204.71593769999998,1123,15696,0.832804584655424,5.7147092887903925e-05,1109.8874040181897,13131.288364402113,1998,0.05000370627691594,0.1049667492749234,1858.1225622324043
35,205.257798125,1121,16037,0.8371769300637781,5.612610150601891e-05,1110.001789394982,13922.64196244509,2037,0.051411508979513326,0.07498730962094437,1911.3082063013517
36,205.7995532,1114,16468,0.8381556767340916,5.458875060141277e-05,1110.3742327119314,14705.622981267701,2065,0.051913901821943546,0.03901960767981093,1964.2074339169253
37,206.34120292499998,1112,17069,0.840625124319978,5.268064951557173e-05,1110.772588280574,15482.32437880783,2108,0.052469926917509443,0.0065680026416102925,2016.940066592636
38,206.88274729999998,1101,17682,0.8415937915656597,5.0756515986108177e-05,1110.0660717116823,16249.183514915088,2146,0.05304055920548304,0.004262738150349129,2069.12056898227
39,207.424186325,1095,18012,0.8431564976534377,4.984078132372393e-05,1108.562277741264,16998.020068404396,2168,0.05347915836035578,0.006492663242725432,2120.084033613405
40,207.96552,1093,18269,0.844165982526256,4.9147996188068e-05,1107.7385897755116,17728.874923553987,2175,0.05317813187548957,-0.01843518618295001,2170.763075041296
41,208.506748325,1086,18640,0.8476484869242688,4.82880532598991e-05,1107.575392421098,18442.470678837217,2214,0.054468924077166185,-0.0015947646856309802,2221.469636911326
42,209.0478713,1094,19066,0.8491768105118729,4.72499894564808e-05,1107.0442818636677,19134.78665428399,2282,0.05613298747429919,0.019940716956917223,2271.58048879925
43,209.588888925,1107,19613,0.8502736512177026,4.5945836551264595e-05,1106.7650682914464,19800.54991052987,2316,0.0555485163904789,0.01796650341839775,2320.6389046184063
44,210.12980119999997,1108,20060,0.8513731200582484,4.4922600256344895e-05,1107.0569435321086,20436.271285872448,2337,0.055209875715047874,0.022845659282438403,2368.241590975968
45,210.670608125,1097,20512,0.8534308197221572,4.395729177039182e-05,1107.3609594781096,21028.636866066776,2383,0.056529077216723886,0.006761472033526802,2413.533239710932
46,211.2113097,1089,20900,0.8557212941711507,4.3194250374597486e-05,1107.7053613898179,21576.180932750045,2418,0.05740515874784006,0.010839584777646651,2456.0400235565453
47,211.751905925,1095,21094,0.8575135521308375,4.2877821497616754e-05,1108.1861423814596,22074.479354005332,2432,0.057327647342313603,0.020318889088462688,2495.7065392194136
48,212.29239679999998,1114,21444,0.8580327959771828,4.2205253122340525e-05,1108.418944936444,22515.197173208475,2471,0.05727252848701609,0.02003047170487023,2532.297696437017
49,212.83278232499998,1117,21892,0.8587529108532552,4.133588018547558e-05,1108.2435389249827,22903.057894855618,2508,0.057498209337996535,0.016152896901784192,2565.600987564788
50,213.37306249999997,1119,22353,0.8598387128136875,4.0493487464146536e-05,1108.1349747445934,23239.3449681755,2531,0.05717680429937491,0.03416737325017678,2595.9671340233713
51,213.91323732499998,1109,22900,0.8611437003932625,3.95183195077446e-05,1108.2252825658352,23514.300278601553,2577,0.05801289303736907,0.058543546262827,2622.843076853332
52,214.45330679999998,1113,23543,0.8624756676121401,3.8451879964874725e-05,1108.6858139481994,23758.730412919434,2644,0.058869828226223206,0.058608666687227536,2648.9120704885217
53,214.993270925,1131,24150,0.8630074298534857,3.7491091266062196e-05,1108.0546105234332,24078.09150830097,2706,0.05904846874404796,0.05899289776669618,2679.322023148831
54,215.5331297,1114,24692,0.8629495266956824,3.659977634641116e-05,1106.8292600058678,24505.94448345329,2752,0.059950433655421485,0.05935468227785671,2715.434166119226
55,216.07288312499998,1109,25203,0.8648478670709356,3.589474006271004e-05,1106.6513397811743,24972.477043647166,2791,0.06037495278547829,0.059722612874996105,2755.5067385444218
56,216.61253119999998,1122,25636,0.8650803831098881,3.528923811331844e-05,1107.0476341479775,25446.17413757907,2829,0.06023872945943457,0.06005496683502626,2796.0780765135705
57,217.152073925,1126,25918,0.8652291434094919,3.489952982451968e-05,1107.7939024666257,25928.848037327643,2849,0.06013188988764741,0.06034822316146751,2836.899952433749
58,217.69151129999997,1115,26194,0.8680312398394996,3.461187606521391e-05,1108.8720242813895,26427.6332646261,2860,0.060397723733798266,0.060627798873276816,2879.6049740650424
59,218.230843325,1104,26662,0.868212549145114,3.3970285200137495e-05,1109.7370042356351,26939.206890302776,2882,0.06039916708584447,0.060856820290153046,2922.375048132405
60,218.77006999999998,1098,27259,0.868144571802742,3.318468605186124e-05,1110.6405354594456,27458.41595506074,2946,0.06132529982383957,0.06107618429749901,2965.7464948242878
61,219.30919132499997,1097,27913,0.8681762475955156,3.237530756248193e-05,1111.6264921062552,27979.56236834303,3011,0.06196633867459042,0.06132422104210213,3010.4698860675767
62,219.84820729999998,1095,28382,0.868951283960652,3.184488159052487e-05,1112.4954359101919,28504.92407528995,3041,0.06197013957516139,0.06155906024234343,3055.323133026737
63,220.38711792499998,1110,28857,0.8691522224557424,3.1324187207833e-05,1112.9966703662383,29042.74817096594,3072,0.06145805530176835,0.06176807982055027,3099.945865138449
64,220.9259232,1127,29507,0.8692686507714266,3.062962123930326e-05,1112.9272010690856,29598.14251738374,3135,0.061504279448520945,0.06195565979792531,3144.733198939893
65,221.464623125,1111,30072,0.8701622824311823,3.0046002639107154e-05,1112.6571156764378,30162.366531517688,3185,0.062315409473508235,0.06213122471684418,3189.9085823007836
66,222.0032177,1104,30498,0.86932404321908,2.9574880697389943e-05,1112.2341615891426,30725.560284490562,3203,0.06207767458382149,0.06226963484542968,3234.291626084334
67,222.54170692499997,1121,30902,0.8705973257298546,2.9233314050228486e-05,1111.1771048041646,31286.281206821746,3226,0.06153612607573097,0.062422003474327026,3278.3478900993728
68,223.0800908,1118,31351,0.8704844215444587,2.8792525437252628e-05,1110.2436068766917,31847.88479920209,3278,0.06219185494446568,0.0626052369075729,3323.455548256975
69,223.61836932499997,1103,31768,0.8703398065724872,2.8382188376732013e-05,1109.6319735441134,32411.507961674615,3326,0.06309360476147527,0.06274567043598384,3368.055697750734
70,224.1565425,1098,32486,0.8697053263836744,2.770821098456972e-05,1108.6488482185116,32973.7910031931,3373,0.06303617998989611,0.06285150358978653,3411.5132166073327
71,224.69461032499999,1095,33143,0.8700422735223692,2.71480988992252e-05,1107.0627647285116,33534.6027769592,3415,0.06298358944620246,0.06297128250333724,3454.6573195315204
72,225.23257279999999,1094,33854,0.8700397124616915,2.6557988780881916e-05,1105.2503793970207,34089.65969784075,3468,0.06304866536581367,0.06309521625415415,3497.2003669391615
73,225.77042992499997,1100,34762,0.8700678242154535,2.5847181516708855e-05,1103.7375025481679,34632.3844481182,3545,0.06319635880835316,0.06318559649292782,3538.116944891096
74,226.30818169999998,1096,35389,0.8699872642519537,2.5369237577696723e-05,1102.619628983648,35165.88763052323,3597,0.0634484631818195,0.06324842871706617,3578.0773063941874
75,226.84582812499997,1093,35823,0.8700242014773532,2.505108555938247e-05,1101.5194908151727,35694.52800742869,3630,0.06355460406415332,0.063298254120504,3617.4768624430217
76,227.3833692,1118,36451,0.8696880407569096,2.461404468222086e-05,1100.692880925934,36212.66479421889,3705,0.06367653359290537,0.06331029867383667,3655.308953770117
77,227.92080492499997,1117,36914,0.87010037851645,2.4306516705770036e-05,1099.796190174162,36717.51527780853,3723,0.06334278253523672,0.06331182836386527,3691.588371197465
78,228.45813529999998,1134,37142,0.8693067287349536,2.4142044232808087e-05,1098.8472219076098,37211.09232372123,3754,0.06325215588995718,0.06332370398167154,3727.269722983462
79,228.99536032499998,1147,37450,0.8691277262341458,2.394093397884874e-05,1098.6849758771223,37687.883983781474,3807,0.06368288438373765,0.06333170110809762,3762.4992865069835
80,229.53248,1115,37982,0.86926662631248,2.357844756319961e-05,1098.417155541441,38141.517112504655,3813,0.06361465152551254,0.06335015785137496,3796.266053591175
81,230.069494325,1100,38765,0.8686441253792921,2.3062368920198915e-05,1097.9572357244574,38578.14369521319,3858,0.06360601348190861,0.06335886274142545,3828.201091757384
82,230.60640329999998,1083,39337,0.868302707705708,2.2698350700729547e-05,1098.0831728917772,38988.64619810113,3899,0.0639185555732544,0.06334281729199952,3857.896011234609
83,231.143206925,1080,39710,0.8687016218294412,2.248774584078284e-05,1098.467054746406,39355.00983034647,3903,0.06348290650852996,0.0633062175889417,3883.969693537718
84,231.67990519999998,1089,39993,0.8683284847277679,2.2319773923703678e-05,1098.2340030351552,39677.31894267065,3932,0.06345511726508955,0.06325798441192627,3905.7856350086454
85,232.216498125,1088,40275,0.8683608504247778,2.215941129519427e-05,1097.3899069061376,39971.51471154422,3952,0.06346455394943638,0.06320095443613785,3924.7280119594257
86,232.75298569999998,1082,40679,0.868249886800152,2.192716334066096e-05,1096.390744977215,40241.9372352707,3944,0.06275554148097166,0.06315614710456458,3942.1529819474204
87,233.289367925,1076,41059,0.867778574191436,2.1703688422365404e-05,1095.496659040954,40480.874040181334,3959,0.06257173372167946,0.06312664696286979,3957.9948583206105
88,233.8256448,1083,41303,0.8676471171202086,2.1572529018403993e-05,1094.5078484223668,40676.928446849655,3999,0.06290549461766605,0.06310217266064722,3970.892726902005
89,234.36181632499998,1088,41347,0.8677489292852631,2.1554160045834798e-05,1094.0703300187793,40824.15375206607,4020,0.06319679725438762,0.06305518477131741,3979.999524337961
90,234.89788249999998,1084,41316,0.8672589311593729,2.1556445892806048e-05,1094.2634940768548,40941.52189177479,4010,0.0630741606823505,0.06299530374005283,3987.0806813290587
91,235.433843325,1081,41433,0.8668004592010585,2.1480978866005614e-05,1094.0330471811155,41037.10215406839,4013,0.06298223003512846,0.06294489274744729,3992.3372216810485
92,235.9696988,1089,41627,0.8665578153052318,2.1376432367290733e-05,1093.775283698364,41098.240435796164,4024,0.0627398289979983,0.06287801088556713,3994.5229110511364
93,236.505448925,1087,41689,0.8666098942893835,2.1344019858366177e-05,1093.7980022197348,41117.974291602644,4014,0.0624739461254378,0.06278643716142714,3992.9760809983604
94,237.04109369999998,1085,41769,0.8664654382940954,2.1297449569710336e-05,1093.5561847380252,41103.49070194036,4019,0.06248671703753013,0.06270781379064207,3989.1937303222408
95,237.576633125,1097,41801,0.8658853313998153,2.1272733181009613e-05,1092.8700763323989,41052.97030510239,4026,0.06230783548717716,0.0626555578825412,3983.412716029732
96,238.11206719999998,1106,41763,0.8659634438688039,2.129924598147438e-05,1092.3243335069667,40970.38363269757,4024,0.06215119977394224,0.06259286445032848,3975.0628553307347
97,238.64739592499998,1104,41717,0.8653764850454776,2.1307869033203104e-05,1091.7537430066157,40863.64291376849,4015,0.062027206755654235,0.06252327506170179,3964.4985390381808
98,239.1826193,1097,41579,0.865240351462597,2.137345861031068e-05,1091.305216426172,40746.889963531794,4011,0.06228225839044532,0.06245280857710533,3953.3524655144315
99,239.71773732499997,1102,41352,0.8654717432609225,2.1502403559277577e-05,1091.0639878592738,40637.46533330235,4001,0.0623354679183457,0.062375992790430386,3942.688917076189
100,240.25275,1107,40938,0.8654328986505,2.1727621667808994e-05,1090.789213798706,40527.12716029731,3967,0.06214099796993373,0.06230240708291328,3931.9307572084685
101,240.787657325,1103,40597,0.8649750843904328,2.1901430201813764e-05,1090.5270561054404,40411.52916260766,3942,0.062178160342949276,0.06223723397086495,3921.116605132544
102,241.3224593,1097,40336,0.8650023747478218,2.204445512749616e-05,1091.0336813970662,40309.47158485958,3932,0.06249603028645161,0.062175140441600205,3912.020181657493
103,241.85715592499997,1104,40030,0.864426750181391,2.2206924682253277e-05,1091.558948107524,40214.65113592529,3908,0.062268216809038185,0.062107256760576816,3903.184941901214
104,242.3917472,1099,39820,0.8640504083213235,2.2314775143238127e-05,1092.4533511517607,40114.77299599008,3871,0.061856556697056087,0.06204809681207474,3894.895082561252
105,242.92623312499998,1088,39723,0.8638615542876957,2.2359558801286287e-05,1093.911390971462,40021.411900608546,3848,0.061712382291550155,0.061997695786242916,3887.9423316495663
106,243.46061369999998,1089,39326,0.8647030136247108,2.2614300641386898e-05,1094.9293755237734,39954.07501868595,3826,0.06189534085547594,0.06192632367899645,3881.215474869118
107,243.994888925,1082,39081,0.863747888775786,2.273080577846222e-05,1095.5869895127653,39912.5300459799,3813,0.06207783058098033,0.06185021708295692,3875.6940587555036
108,244.52905879999997,1078,39255,0.8628771528607923,2.2602015686428798e-05,1095.7612176946038,39888.20913270892,3827,0.06213294112199277,0.06179495746045292,3872.033047181062
109,245.063123325,1089,39404,0.8633129275796555,2.2531982972195107e-05,1095.9066117012633,39883.55441799285,3853,0.06227840093514728,0.06174708278370053,3870.2118507779733
110,245.59708249999997,1100,39168,0.8623491049005171,2.2652860799109936e-05,1096.2580126389971,39908.38451606981,3840,0.06206883858956123,0.06171568325027093,3871.571111463379
111,246.130936325,1100,38870,0.862505803534046,2.2835737451258832e-05,1096.4318557611514,39977.13705859626,3821,0.062136041604875285,0.06168134365532626,3875.6205576569514
112,246.66468479999997,1095,38897,0.8631762817630669,2.2834143213667713e-05,1096.2243538924795,40094.05014836047,3808,0.061949030538680505,0.06162178764711931,3881.4507236856266
113,247.19832792499997,1095,39181,0.8629529675416884,2.2658009965385927e-05,1095.680513714899,40259.480350630045,3808,0.06147118103609202,0.061556672399972236,3890.190717796478
114,247.7318657,1091,39767,0.8621360146885437,2.2291240425290717e-05,1095.013386486649,40470.44927404847,3841,0.06130091116954947,0.06150677252520041,3902.7821241703487
115,248.265298125,1089,39991,0.8624878814902607,2.217078508791992e-05,1094.544134634965,40720.257808783106,3854,0.061302220768098575,0.061467165088296846,3918.756347822073
116,248.79862519999998,1090,39909,0.862427427307537,2.2216631734654086e-05,1094.026931527307,40999.292350901844,3854,0.06140677011458389,0.061423757761153726,3936.5039751749005
117,249.33184692499998,1084,40154,0.8621956715984717,2.2067972142269557e-05,1093.508505288887,41299.89761942434,3867,0.06141516647193618,0.06137582094713103,3955.5465355952947
118,249.8649633,1093,40697,0.8614594306460737,2.175182887198449e-05,1093.3808013771336,41640.50721420564,3912,0.061318405590124275,0.06132568358844492,3977.67405830249
