,x_(nm),baseline_dark,baseline_light,baseline_dark_smoothed,baseline_light_smoothed,raw_signal,calibrated_signal,calibrated_signal_smoothed,raw_signal_smoothed
0,186.23,1272,1277,1262.87798931861,4423.341725401679,1197,-15.0,,1195.8774802293105
1,186.775442325,1267,1267,1266.7765350939594,3337.9588251104515,1206,-inf,,1200.5369507131986
2,187.3207793,1270,1275,1270.548685579698,2389.7938500541472,1211,-11.8,,1205.0718401213082
3,187.86601092499998,1276,1285,1274.194247732958,1573.9994752101907,1210,-7.333333333333333,,1209.4829200604604
4,188.41113719999998,1286,1281,1277.7130285108717,885.728375556007,1212,14.8,,1213.7709621374752
5,188.956158125,1285,1286,1281.1048348705708,320.1332260690215,1209,-76.0,,1217.9367379591731
6,189.50107369999998,1276,1293,1284.3694737691878,-127.63329827334019,1208,-4.0,,1221.9810191323745
7,190.045883925,1276,1298,1287.506752163855,-462.41852249365365,1224,-2.3636363636363638,,1225.9045772639001
8,190.59058879999998,1284,1305,1290.5164770117042,-689.0697716144932,1234,-2.380952380952381,,1229.70818396057
9,191.135188325,1296,1314,1293.3984552698676,-812.4343706584332,1239,-3.1666666666666665,,1233.392610829205
10,191.67968249999998,1305,1314,1296.1524938954776,-837.3596446480497,1242,-7.0,,1236.9586294766254
11,192.22407132499998,1294,1303,1298.778399845666,-768.6929186059151,1240,-6.0,,1240.4070115096515
12,192.7683548,1292,1304,1301.2759800775652,-611.2815175546057,1240,-4.333333333333333,,1243.7385285351038
13,193.312532925,1300,1306,1303.6450415483073,-369.97276651669745,1239,-10.166666666666666,,1246.9539521598028
14,193.8566057,1301,1301,1305.8853912150246,-49.6139905147611,1251,-inf,,1250.0540539905692
15,194.400573125,1294,1300,1307.996836034849,344.9474854286236,1258,-6.0,,1253.0396056342229
16,194.9444352,1298,1299,1309.9791829649128,808.8643362908842,1252,-46.0,,1255.9113786975845
17,195.488191925,1314,1305,1311.832238962348,1337.2892370494465,1253,6.777777777777778,,1258.6701447874748
18,196.0318433,1324,1318,1313.5558109842868,1925.3748626817346,1271,8.833333333333334,,1261.316675510714
19,196.575389325,1320,1322,1315.1497059878616,2568.273888165175,1277,-21.5,,1263.8517424741224
20,197.11883,1310,1309,1316.6137309302042,3261.1389884771916,1267,43.0,,1266.2761172845208
21,197.662165325,1320,1310,1317.9476927684468,3999.1228385952154,1273,4.7,,1268.590571548729
22,198.2053953,1326,1310,1319.1513984597218,4777.378113496662,1277,3.0625,,1270.7958768735682
23,198.74851992499998,1318,1311,1320.2246549611614,5591.057488158962,1262,8.0,,1272.8928048658586
24,199.2915392,1324,1325,1321.1672692298973,6435.313637559533,1268,-56.0,,1274.8821271324202
25,199.83445312499998,1341,1337,1321.9790482230376,7305.299236675663,1280,15.25,,1276.7646152800498
26,200.3772617,1342,2442,1322.703209585696,8065.419986862515,1278,-0.05818181818181818,,1278.437269247297
27,200.919964925,1323,6979,1322.827515912,8840.188656594544,1266,-0.010077793493635077,-inf,1279.576321094451
28,201.4625628,1326,12309,1322.644589911411,9633.733334843186,1271,-0.005007739233360648,-inf,1280.3656254954567
29,202.005055325,1332,14507,1322.5908854107427,10443.896600149294,1278,-0.004098671726755218,-inf,1281.3434279371882
30,202.5474425,1323,15451,1322.7450451878613,11263.176221431753,1286,-0.002618912797281993,-inf,1282.5819837368663
31,203.089724325,1321,16142,1322.6836168429384,12090.710684273476,1290,-0.0020916267458336146,-inf,1283.6630048245468
32,203.63190079999998,1323,16824,1322.119187297535,12928.792430179372,1297,-0.0016773111412166958,-inf,1284.1935491177355
33,204.173971925,1320,17323,1321.4586740356265,13773.65811230126,1295,-0.0015622070861713428,-inf,1285.4275974540512
34,204.71593769999998,1321,17661,1320.7483068698925,14616.570296042664,1294,-0.0016523867809057527,inf,1287.247978436633
35,205.257798125,1323,17911,1320.4184013227682,15450.602459851569,1299,-0.0014468290330359296,inf,1289.0177353960205
36,205.7995532,1322,18282,1320.4342567215313,16269.837980474897,1295,-0.0015919811320754718,inf,1290.581462773764
37,206.34120292499998,1321,18865,1319.9507123603908,17076.155949171793,1293,-0.0015959872321021432,inf,1292.0707603795986
38,206.88274729999998,1321,19495,1319.2034247661074,17868.754173367117,1296,-0.0013755915043468692,inf,1293.3854673944804
39,207.424186325,1326,19826,1318.6979999546736,18637.295816439426,1294,-0.0017297297297297297,inf,1294.1235588574807
40,207.96552,1320,20034,1318.169562164463,19377.933090216844,1291,-0.001549641979266859,0.566468706935428,1294.8562141837617
41,208.506748325,1313,20322,1317.1063897256763,20092.3754784929,1293,-0.001052133200063128,0.5765665313414993,1295.91730277014
42,209.0478713,1312,20706,1315.6420756981784,20777.152891344816,1290,-0.0011343714550892028,-0.7367939616528535,1296.8963509932025
43,209.588888925,1305,21195,1314.4496591089014,21428.0648712311,1290,-0.0007541478129713424,-0.6078817726091441,1297.7378649572788
44,210.12980119999997,1291,21555,1313.969308478083,22041.482842193054,1284,-0.0003454401894986182,-0.3744058222234063,1298.7387483294956
45,210.670608125,1291,21954,1313.5232734603023,22604.78135405062,1279,-0.0005807481972608043,-1.0722974820571782,1299.7815126050173
46,211.2113097,1303,22324,1312.9514598291898,23115.100138168033,1277,-0.0012368583797155227,0.19220720572222377,1300.6282815012546
47,211.751905925,1311,22496,1312.6441142494482,23568.13574486353,1289,-0.001038470616001888,0.46933819015709,1301.453849464289
48,212.29239679999998,1315,22756,1312.2596887811476,23953.851548165974,1303,-0.0005596753882748006,0.7272874400684098,1302.0747921809984
49,212.83278232499998,1314,23144,1311.6193118756685,24278.707060182092,1305,-0.00041227668346312414,1.1704066913124214,1302.1517814672789
50,213.37306249999997,1309,23586,1311.2482049423293,24543.16340120907,1296,-0.0005835615208511021,-0.4054387196092763,1302.509298058821
51,213.91323732499998,1306,24156,1311.1278171645768,24740.403497247484,1296,-0.000437636761487965,0.0012546153144716613,1302.6526761647806
52,214.45330679999998,1314,24765,1311.021631294002,24907.96992004301,1318,0.00017056841925717453,-0.00013084605009591193,1302.4695236584953
53,214.993270925,1321,25171,1310.1797775713806,25158.115767061056,1334,0.0005450733752620545,-0.0002910822148796027,1301.2406623026318
54,215.5331297,1317,25547,1309.551360166683,25535.58567577926,1326,0.00037144036318613287,-0.00034144997330865493,1299.9208136084371
55,216.07288312499998,1315,26065,1310.151147251328,25963.812204126436,1316,4.0404040404040405e-05,-0.0003824457761178321,1299.719223538447
56,216.61253119999998,1317,26527,1311.1794151622662,26406.61550657948,1313,-0.00015866719555731853,-0.0003919312855280402,1300.322589413099
57,217.152073925,1320,26792,1312.3994880971004,26864.60651430332,1325,0.00019629396984924624,-0.0003946906442089542,1301.1540465242451
58,217.69151129999997,1317,27038,1313.5565924482746,27341.80665473684,1312,-0.0001943936860930757,-0.00038497845930502426,1302.2166526987903
59,218.230843325,1321,27450,1314.196652245779,27837.983533035323,1296,-0.0009567913046806231,-0.0003643667841246005,1303.1880676798771
60,218.77006999999998,1316,27993,1314.88645269426,28349.428775283155,1296,-0.0007497094875735653,-0.00035227440482889287,1304.0294230899658
61,219.30919132499997,1310,28640,1315.744999886722,28867.26374323259,1300,-0.00036589828027808267,-0.00034594892805377283,1304.7742417721556
62,219.84820729999998,1312,29111,1316.697954653534,29391.862601643872,1294,-0.0006475053059462571,-0.0003481879864568118,1305.464902942284
63,220.38711792499998,1314,29490,1317.7724297265822,29934.118507779895,1292,-0.0007808063600227143,-0.0003560796811716564,1306.1506262882262
64,220.9259232,1309,30101,1318.6446125619807,30505.03864187126,1303,-0.00020839121978327314,-0.00035683969222805056,1306.8509139504608
65,221.464623125,1306,30736,1319.540351989827,31092.992751817113,1310,0.00013591573224600747,-0.0003667038739819463,1307.5268975514482
66,222.0032177,1312,31198,1320.2965412579872,31683.82690434603,1302,-0.00033460483169376964,-0.0003762353231129952,1308.0846451788013
67,222.54170692499997,1326,31636,1321.0603411175537,32274.32705157473,1293,-0.0010887495875948532,-0.00038420034571065147,1308.5181544315587
68,223.0800908,1333,32077,1321.8344016851768,32867.11046682761,1291,-0.001366120218579235,-0.0004031121322555776,1308.6616004892273
69,223.61836932499997,1321,32498,1322.2109447552352,33461.62578993797,1298,-0.0007377233216794432,-0.00041854054057919264,1308.3975401481098
70,224.1565425,1317,33211,1322.0995719042082,34051.69931368708,1300,-0.0005330156142221107,-0.00042034784894816064,1307.9638723413643
71,224.69461032499999,1310,33895,1321.6400597974784,34634.05307028405,1293,-0.0005217124443762468,-0.0004191835927089294,1307.389544497019
72,225.23257279999999,1309,34626,1321.0332963373776,35201.1868898496,1295,-0.0004202059008914368,-0.00042649933694784327,1306.6560057985207
73,225.77042992499997,1318,35608,1320.6362318512056,35745.29096921719,1303,-0.0004374453193350831,-0.0004289109116170051,1306.2635393779901
74,226.30818169999998,1320,36270,1320.6828014224304,36264.419737705706,1303,-0.0004864091559370529,-0.0004397261585629144,1305.938254547077
75,226.84582812499997,1318,36777,1320.5931731182789,36758.74864662776,1294,-0.0006768380382977524,-0.0004418651907046079,1305.7121792112823
76,227.3833692,1331,37349,1319.9511427212142,37222.889170761926,1310,-0.0005830418124271198,-0.0004320522642985311,1305.3049446193322
77,227.92080492499997,1340,37662,1319.1839905773377,37651.47283064097,1319,-0.0005781619954848301,-0.0004263001005340188,1304.6299802939793
78,228.45813529999998,1355,37945,1318.7655892545445,38041.054066909055,1344,-0.0003006285870456409,-0.000411421930594765,1304.4827515911775
79,228.99536032499998,1360,38295,1318.60513261906,38379.32202314814,1356,-0.00010829836198727494,-0.000386218442742645,1304.844345285259
80,229.53248,1332,38719,1318.5940564904954,38657.7668803363,1328,-0.00010698906036857731,-0.0003802806828931492,1304.9153321705794
81,230.069494325,1311,39338,1318.8033704047405,38880.25454710111,1308,-7.88913140663213e-05,-0.00040177461131052567,1304.6027769598156
82,230.60640329999998,1301,39762,1318.992480010847,39038.290765362,1302,2.6000364005096073e-05,-0.00041040085822050237,1304.6017123830413
83,231.143206925,1303,40065,1319.2571519173455,39117.569254115995,1299,-0.00010319384964656106,-0.00039832305940146754,1305.2185100455026
84,231.67990519999998,1317,40170,1319.1954744161562,39115.97501642091,1298,-0.0004890227266877719,-0.00040192452025285583,1305.177286008718
85,232.216498125,1317,40155,1318.889918231418,39042.67489637289,1299,-0.0004634636181059787,-0.0004187747736539968,1304.5406237966636
86,232.75298569999998,1314,40245,1318.3241296518354,38900.12351355562,1306,-0.0002054917674860651,-0.0004163699082468634,1304.0895830029876
87,233.289367925,1310,40352,1317.5134204624994,38686.67147613688,1303,-0.00017929409354028994,-0.00039929644405137574,1303.787673559965
88,233.8256448,1304,40224,1316.9321388932678,38394.11848512916,1299,-0.00012846865364850977,-0.00039676718704211413,1303.3839724568822
89,234.36181632499998,1310,39657,1316.338761919837,38017.02695417717,1299,-0.00028685425196234385,-0.00038605253187428703,1303.1176697093686
90,234.89788249999998,1315,39005,1315.7108654782417,37571.7703232229,1295,-0.0005306447333510214,-0.00037488060671566454,1302.9767378649321
91,235.433843325,1315,38502,1315.0506466737384,37067.37035946383,1292,-0.0006184957108667007,-0.000362590037432622,1302.9547668123605
92,235.9696988,1307,37996,1314.5461505356607,36496.790142471385,1294,-0.00035432963558559784,-0.00035506185480050137,1302.9001109877665
93,236.505448925,1303,37311,1314.0192529841875,35861.013952750225,1297,-0.00016662963785825372,-0.0003622863649837934,1302.3039026931278
94,237.04109369999998,1306,36568,1313.3498153978321,35165.893474370205,1308,5.671828030174125e-05,-0.0003805270263898087,1301.206233436746
95,237.576633125,1303,35714,1312.5041563795078,34411.74925819319,1305,5.812094969631804e-05,-0.0003839831958610146,1300.3745951210424
96,238.11206719999998,1308,34803,1311.6607171170103,33609.58255000049,1300,-0.000238841618151963,-0.00037306611581104497,1299.9027158032777
97,238.64739592499998,1321,33918,1310.7404244716502,32772.731613399446,1297,-0.000736264073380986,-0.00035583385227126496,1299.4949375976555
98,239.1826193,1321,32875,1309.8198147183152,31918.764887086298,1291,-0.0009507510933637574,-0.0003297300664447451,1299.328002899248
99,239.71773732499997,1309,31735,1309.2047838002875,31068.46589956677,1299,-0.00032866627226713996,-0.0003023001444149848,1299.4877120659337
100,240.25275,1311,30477,1308.790368977755,30219.236857006377,1296,-0.0005142974696564493,-0.00028507895781658746,1299.5273732134115
101,240.787657325,1324,29236,1308.352850574167,29375.981743640292,1290,-0.0012181140728002293,-0.0002683721378047689,1299.4728532922352
102,241.3224593,1325,28131,1308.2519422863234,28555.435321297784,1295,-0.00111915242856077,-0.0002488862315779314,1299.8297583183967
103,241.85715592499997,1321,27053,1308.636752814308,27756.315137375168,1298,-0.0008938286957873465,-0.00022766027155756628,1300.7130852340686
104,242.3917472,1320,26069,1309.4406894833153,26979.51675009575,1300,-0.0008081134591296618,-0.00019657384969835642,1302.3617975491836
105,242.92623312499998,1311,25235,1310.1787809463156,26244.31350653419,1307,-0.00016719612104999163,-0.0001582444646256269,1304.2089515051052
106,243.46061369999998,1299,24332,1310.449364651496,25572.617748985896,1315,0.0006946554942908002,-0.0001279256000090835,1305.2852386237264
107,243.994888925,1298,23611,1310.1429477451109,24972.012956125374,1305,0.0003137184600905302,-0.00010824604548045387,1305.3434958888963
108,244.52905879999997,1295,23156,1309.668984574937,24440.073704953214,1299,0.00018297424637482275,-8.78462674947141e-05,1305.1995288681262
109,245.063123325,1300,22747,1309.7363700196806,23988.53507440666,1312,0.0005595188138201147,-6.912610284313253e-05,1305.4741217241362
110,245.59708249999997,1311,22197,1310.028992729142,23631.850143830667,1319,0.00038303169587283346,-4.789393591120867e-05,1306.104758884661
111,246.130936325,1315,21729,1310.1515776121519,23383.65344628373,1314,-4.898599000685804e-05,-2.2671567237749793e-05,1306.7332895422069
112,246.66468479999997,1317,21519,1310.4473261002265,23254.15203062313,1314,-0.0001485001485001485,1.8922958484812045e-06,1307.4349135880516
113,247.19832792499997,1310,21558,1310.9550612697658,23248.96477836373,1312,9.877518767285657e-05,1.799255844407172e-05,1307.9136333778542
114,247.7318657,1311,21864,1310.9293755237695,23364.615891639227,1304,-0.0003405828832773804,4.494410644065377e-05,1308.3330766268518
115,248.265298125,1305,22051,1310.7767786359575,23592.55903870937,1310,0.00024101031524149233,7.198177732221515e-05,1308.6607850687194
116,248.79862519999998,1299,22170,1311.1104215270764,23924.827855670115,1315,0.0007666139619567821,8.560917606046384e-05,1308.8770980089896
117,249.33184692499998,1295,22579,1311.3582867108855,24352.443656707506,1310,0.0007047547453486187,9.902671422909207e-05,1308.9837821920971
118,249.8649633,1308,23184,1311.3554780402476,24889.580149040274,1320,0.0005485463521667581,0.00012093227097672443,1309.1563342317809
119,250.397974325,1323,23871,1311.1011121429453,25544.732995084334,1337,0.0006208976405889658,0.00015191097019102566,1309.50268409248
120,250.93087999999997,1321,24836,1310.6240684952975,26316.499716867373,1339,0.0007654688496704232,0.0001961103367486312,1310.2576728804477
121,251.46368032499998,1319,26109,1310.2506512038526,27193.225146661916,1333,0.0005647438483259379,0.00024185125574837065,1311.2269360574169
122,251.99637529999998,1315,27337,1309.8833948673557,28151.869759223908,1326,0.0004227192375682115,0.0002864762601414114,1312.2869827175903
123,252.52896492499997,1313,28433,1309.721488595413,29186.903893632363,1320,0.00025811209439528023,0.00032342333254530627,1313.479557860855
124,253.06144919999997,1311,29503,1309.6737638451355,30292.20437608948,1317,0.00021282633371169125,0.0003601802742245143,1315.056445219572
125,253.593828125,1306,30778,1309.5337606740559,31466.223515820824,1322,0.0005428881650380022,0.0004213179954299859,1317.6371152234226
126,254.1261017,1304,32147,1309.720559922057,32699.457518855972,1316,0.0003890672113607626,0.0004802068127565943,1320.7865183809122
127,254.65826992499998,1306,33413,1310.0364674171306,33970.41627216859,1318,0.0003737502725262404,0.0005262935275571141,1324.1598224195084
128,255.19033279999996,1301,34844,1310.1655303630635,35268.16811252735,1311,0.0002981247950392034,0.0005864295868026026,1328.3281841038047
129,255.722290325,1307,36607,1310.1986228453395,36586.67795419985,1315,0.00022662889518413598,0.0006635045122198345,1333.469478357355
130,256.2541425,1324,38183,1310.2285668984323,37920.7932455994,1331,0.00018991291136493123,0.0007556925452377273,1339.7210355840193
131,256.78588932499997,1321,39445,1310.4608937914538,39254.35443611331,1341,0.0005246039240373518,0.0008671583325451481,1346.9011076128306
132,257.3175308,1324,41019,1310.5072821581211,40567.6067861099,1366,0.0010580677667212496,0.0010099920269722486,1354.8540623796428
133,257.849066925,1321,42908,1310.2365172483835,41847.84146866213,1378,0.0013706206266381321,0.00115988558179931,1363.1135020045492
134,258.3804977,1303,44684,1309.6117465854015,43096.69412670646,1371,0.001567506512067495,0.0013240947030212459,1371.9048902579639
135,258.91182312499996,1308,46088,1308.933294072321,44315.67281252037,1366,0.0012952210808396605,0.001522703236356734,1382.2424063964945
136,259.4430432,1315,47111,1308.5037260186843,45485.84939636144,1375,0.0013101580924098175,0.001737907567738929,1393.9164873496302
137,259.974157925,1307,48038,1308.4156153026997,46604.94373598407,1390,0.0017761229162654342,0.0019667581114347532,1407.2594169743097
138,260.5051673,1294,48929,1308.860087431174,47673.60984393666,1408,0.002393198278576677,0.0022140440715381275,1422.5246777956193
139,261.03607132499997,1303,49808,1309.3365874651497,48674.05218691156,1421,0.0024327388928976393,0.002480818513709499,1438.6628462705562
140,261.56687,1312,50555,1309.6336496862646,49606.10614056849,1441,0.002619661677801921,0.0027547358059823866,1455.439239846854
141,262.097563325,1300,51444,1309.446601281997,50467.56746472076,1460,0.003190810465858328,0.003080718644044973,1474.0453690910044
142,262.62815129999996,1302,52797,1308.810573285893,51244.29108246975,1482,0.003495484998543548,0.0034580010582742674,1494.3173344809334
143,263.158633925,1301,53677,1307.8703028380912,51942.1424494316,1506,0.003914006415151978,0.0038626902664139207,1515.7614215497229
144,263.6890112,1303,53968,1306.982989422159,52559.93635189824,1531,0.004329250925662205,0.0042924859338050415,1538.6651339780901
145,264.219283125,1312,54014,1306.4519468164376,53085.63025209983,1561,0.004724678380327123,0.004760972256835445,1563.5200570794054
146,264.7494497,1304,54063,1306.0084033613193,53531.29681306382,1588,0.005382967834871776,0.005267467569768901,1590.1034451516155
147,265.27951092499995,1307,54577,1305.6414867833676,53916.98165303754,1620,0.005875727426318754,0.00579182037111488,1618.0227185213398
148,265.8094668,1314,55076,1305.568053636524,54236.53720355963,1656,0.00636137048472899,0.006335573919820343,1647.396951233292
149,266.33931732499997,1313,55349,1305.6349181181656,54470.41196855996,1683,0.006847286993855948,0.006901695941224881,1677.735214840621
150,266.8690625,1305,55204,1305.718679924775,54610.32372194056,1705,0.007421287964526243,0.007503209080623356,1709.1432875036478
151,267.398702325,1294,54794,1305.5629799089197,54673.82151351,1733,0.008205607476635514,0.008151632862254182,1741.9891050759593
152,267.9282368,1302,54643,1305.1159029649345,54678.47738340515,1772,0.008811233385200878,0.008831796956223152,1776.1604339848807
153,268.457665925,1312,54550,1304.8815828217832,54617.6819860009,1806,0.009279086366880799,0.009535889995162024,1811.5186527440815
154,268.9869897,1315,54232,1304.5845206006682,54491.13332125199,1835,0.00982670975300943,0.010269244689479934,1847.6972071847251
