,x_(nm),baseline_dark,baseline_light,baseline_mirror,baseline_calibration,baseline_dark_smoothed,baseline_light_smoothed,raw_signal,calibrated_signal,calibrated_signal_smoothed,raw_signal_smoothed
0,186.23,1404,1386,0.3621226043733797,-0.02011792246518776,1373.5090829752307,4338.300618812283,1317,1.7502592544713351,,1516.557288356401
1,186.775442325,1400,1380,1.18800459154587,-0.0594002295772935,1378.6479941565394,3325.739348808391,1305,5.643021809842883,,1449.1547233052231
2,187.3207793,1391,1382,1.908567993433533,-0.21206311038150366,1383.4144018516931,2439.75388551809,1316,15.904733278612774,,1390.6807776360024
3,187.86601092499998,1384,1385,1.7279185264672412,1.7279185264672412,1387.8211004188802,1676.0296635667692,1332,-89.85176337629655,,1340.823664034232
4,188.41113719999998,1382,1388,1.043047789334166,0.17384129822236102,1391.880884216289,1030.2521175798192,1323,-10.2566365951193,,1299.2715951854054
5,188.956158125,1380,1385,0.840365554154959,0.1680731108309918,1395.6065476021076,498.1066821826307,1317,-10.588605982352483,,1265.7127837750165
6,189.50107369999998,1369,1382,0.8202728553565946,0.06309791195050728,1399.010884934525,75.27879200059306,1326,-2.713210213871813,,1239.8354424885583
7,190.045883925,1388,1399,0.837733819880384,0.07615761998912582,1402.1066905717291,-242.54611834090338,1345,-3.2747776595324103,,1221.3277840115245
8,190.59058879999998,1398,1410,0.8116271105193998,0.06763559254328332,1404.9067588719086,-459.6826142164673,1348,-3.381779627164166,,1209.8780210294087
9,191.135188325,1399,1409,0.8262856362484797,0.08262856362484797,1407.4238841932513,-580.4452610007083,1346,-4.379313872116942,,1205.174366227704
10,191.67968249999998,1415,1408,0.8012221689422371,-0.11446030984889101,1409.6708608939462,-609.1486240682389,1344,8.126681999271261,,1206.9050322919043
11,192.22407132499998,1410,1404,0.7775424502505143,-0.1295904083750857,1411.6604833321812,-550.1072687936676,1347,8.1641957276304,,1214.758231907503
12,192.7683548,1399,1399,0.7753865851703869,inf,1413.405545866145,-407.6357605516023,1361,-inf,,1228.4221777599935
13,193.312532925,1391,1394,0.7956261498651602,0.2652087166217201,1414.9188428540258,-186.04866471665446,1355,-9.547513798381923,,1247.5850825348691
14,193.8566057,1393,1402,0.7908861747409445,0.08787624163788271,1416.213168654012,110.33945333656538,1355,-3.339297182239543,,1271.9351589176235
15,194.400573125,1413,1422,0.7942231778648126,0.08824701976275695,1417.3013176242919,477.2140282334508,1366,-4.147609928849577,,1301.1606195937502
16,194.9444352,1429,1443,0.7947581770897779,0.05676844122069842,1418.196084123054,910.260494599389,1373,-3.1790327083591117,,1334.9496772487428
17,195.488191925,1433,1455,0.7914877943554887,0.035976717925249486,1418.9102625084865,1405.1642870597707,1384,-1.762859178337225,,1372.9905445680945
18,196.0318433,1436,1453,0.7911116722494277,0.04653598072055457,1419.456647138778,1957.6108402399855,1392,-2.047583151704401,,1414.9714342372986
19,196.575389325,1431,1442,0.7900325230816138,0.07182113846196489,1419.8480323721164,2563.285588765424,1383,-3.4474146461743147,,1460.5805589418496
20,197.11883,1430,1431,0.798472358442206,0.798472358442206,1420.0972125666908,3217.873967261479,1370,-47.90834150653236,,1509.5061313672395
21,197.662165325,1436,1429,0.7981102791346143,-0.11401575416208776,1420.216982080689,3917.0614103535377,1371,7.411024020535704,,1561.436364198963
22,198.2053953,1430,1416,0.8040599544843242,-0.05743285389173745,1420.2201352722993,4656.533352666993,1376,3.101374110153822,,1616.059470122513
23,198.74851992499998,1418,1411,0.8074165803696804,-0.1153452257670972,1420.1194664997104,5431.975228827228,1379,4.498463804916791,,1673.0636618233837
24,199.2915392,1428,1434,0.8060625325032217,0.13434375541720361,1419.9277701211104,6239.072473459638,1388,-5.373750216688144,,1732.1371519870672
25,199.83445312499998,1452,1452,0.8122546130835153,inf,1419.6578404946613,7073.5105211894725,1403,-inf,-inf,1792.968153299021
26,200.3772617,1445,2499,0.8144257223941842,0.0007726999263701937,1420.1534576094316,7816.982468458934,1469,0.01854479823288465,-inf,1846.5136922693255
27,200.919964925,1419,6780,0.8150182986479615,0.00015202728943256136,1420.6612833812499,8577.392239914669,1780,0.05488185148515465,-inf,1900.5691861649955
28,201.4625628,1410,11774,0.8232603193402961,7.943461205521962e-05,1420.9986636163626,9357.254524451111,2125,0.05679574761948202,-inf,1956.1935717682927
29,202.005055325,1419,13827,0.8194894939197722,6.60452525725155e-05,1421.3871435366327,10156.80488799274,2290,0.057525414990660995,-inf,2013.8589322521075
30,202.5474425,1420,14735,0.8269202298982968,6.210441080723221e-05,1421.4937824186009,10970.833473011638,2369,0.05893708585606337,-inf,2072.6220525945832
31,203.089724325,1417,15425,0.8298864771900701,5.92437519410387e-05,1421.1190966952547,11797.682733470523,2407,0.05865131442162831,-inf,2131.3475956419898
32,203.63190079999998,1414,16127,0.8293789756785952,5.637048703042175e-05,1420.2895195813906,12639.16935830912,2452,0.058512565537577776,,2189.905297968202
33,204.173971925,1417,16671,0.8303112569560028,5.443236245942066e-05,1419.8053410042987,13492.93793743887,2491,0.05846035728141779,,2249.5012797571426
34,204.71593769999998,1411,17063,0.832804584655424,5.32075507702162e-05,1419.1845568415772,14347.746766630906,2516,0.0587943436010889,,2309.7984325805346
35,205.257798125,1412,17408,0.8371769300637781,5.233664228955852e-05,1418.435955514254,15198.370087657413,2535,0.05877404929117422,,2369.340302158554
36,205.7995532,1410,17869,0.8381556767340916,5.092385179744162e-05,1418.1465944868241,16040.590500350776,2557,0.05840965801166554,,2427.7449319349917
37,206.34120292499998,1402,18543,0.840625124319978,4.904177844466356e-05,1417.8360098756214,16874.45989716609,2605,0.058997259468930266,,2485.676753720308
38,206.88274729999998,1400,19206,0.8415937915656597,4.726461819418509e-05,1417.3118077419376,17700.970690162518,2650,0.059080772742731366,-inf,2543.3444925139383
39,207.424186325,1400,19573,0.8431564976534377,4.6396109484038834e-05,1416.5191963577613,18509.413440847682,2671,0.058969455154213354,-inf,2599.348909375021
40,207.96552,1397,19930,0.844165982526256,4.554934346982442e-05,1415.5781104894515,19294.60474755903,2689,0.05884975176301315,-inf,2653.9991619288717
41,208.506748325,1403,20338,0.8476484869242688,4.476622587400416e-05,1415.1142494733467,20063.399216289905,2715,0.05873328834669345,-inf,2707.9034406214796
42,209.0478713,1417,20749,0.8491768105118729,4.3925967851845276e-05,1415.222632449179,20810.713696799077,2754,0.05872901901791713,-inf,2760.3306077147313
43,209.588888925,1422,21299,0.8502736512177026,4.2776759632625775e-05,1415.5372488617818,21529.505062401906,2787,0.05839027689853418,-inf,2811.1845568415506
44,210.12980119999997,1419,21792,0.8513731200582484,4.178928582232604e-05,1415.8588189992706,22216.61559718184,2812,0.058212475150500174,-inf,2860.0112573330675
45,210.670608125,1418,22337,0.8534308197221572,4.079692240174756e-05,1416.1147930870188,22858.16951686291,2855,0.05862517749131124,inf,2905.2530748147765
46,211.2113097,1415,22783,0.8557212941711507,4.004685951755666e-05,1416.625042469791,23449.606355749394,2886,0.05890893035032584,inf,2946.5304310402835
47,211.751905925,1418,22980,0.8575135521308375,3.976966664181604e-05,1417.465288001966,23989.083784456714,2901,0.05897841562981319,inf,2983.8433033590227
48,212.29239679999998,1429,23326,0.8580327959771828,3.918494752601648e-05,1418.4539853677047,24466.605902737985,2934,0.0589733460266548,inf,3017.123966567701
49,212.83278232499998,1432,23860,0.8587529108532552,3.8289321867899736e-05,1419.2821354956807,24886.453464404152,2961,0.0585443731360187,inf,3046.62164488431
50,213.37306249999997,1436,24374,0.8598387128136875,3.748533929783275e-05,1420.2523726471452,25249.45382681326,2996,0.05847712930461908,inf,3071.9107567554734
51,213.91323732499998,1433,24918,0.8611437003932625,3.666781777275974e-05,1421.4406215316042,25547.276880563055,3055,0.059475200427416296,0.06062713917120094,3092.3030193208765
52,214.45330679999998,1430,25629,0.8624756676121401,3.564096316426878e-05,1422.5500690842102,25813.59983238529,3109,0.059841177152807276,0.05967853596027667,3110.5082334820127
53,214.993270925,1426,26202,0.8630074298534857,3.483239545743807e-05,1422.4080047112914,26158.630365353187,3145,0.05987688779133604,0.05969377601169536,3134.6146458582834
54,215.5331297,1413,26681,0.8629495266956824,3.415187298938113e-05,1421.6694149357581,26622.647715689534,3164,0.05979992960440635,0.059755061113407754,3166.826926997154
55,216.07288312499998,1414,27245,0.8648478670709356,3.3481006042001304e-05,1421.8575958685087,27127.137647511317,3180,0.0591274566701743,0.059831001968121564,3203.2718294864503
56,216.61253119999998,1422,27767,0.8650803831098881,3.283660592559833e-05,1422.6076468322908,27636.78925909934,3228,0.05930291030163059,0.059950195135592535,3241.339373485181
57,217.152073925,1419,28109,0.8652291434094919,3.241772736641034e-05,1423.3869170309363,28153.138281727253,3292,0.060718403357286566,0.06006738973844723,3280.1552923055383
58,217.69151129999997,1419,28410,0.8680312398394996,3.216002518763661e-05,1424.0250741805883,28681.085573851637,3322,0.061200527932072465,0.06018415985506184,3320.0937507077665
59,218.230843325,1430,28965,0.868212549145114,3.1531234761035556e-05,1424.5740107363426,29222.36913633322,3339,0.060193127158816875,0.06029284788324646,3360.7933362023405
60,218.77006999999998,1434,29590,0.868144571802742,3.0833377319318864e-05,1425.088246619375,29772.005436136147,3392,0.060371752791226335,0.060391556449236584,3401.4973159074298
61,219.30919132499997,1435,30269,0.8681762475955156,3.010946270359699e-05,1425.9183899974812,30322.893293165736,3453,0.06076089573585873,0.060473110716573714,3441.8691250084275
62,219.84820729999998,1432,30844,0.868951283960652,2.9544107301803755e-05,1426.9870891752653,30874.925570227497,3490,0.060801772827112126,0.060542242371449,3482.4813472558167
63,220.38711792499998,1427,31254,0.8691522224557424,2.913978014737461e-05,1427.421889510494,31437.550046433065,3523,0.06107697918889718,0.06062996361291727,3523.856440689416
64,220.9259232,1424,31900,0.8692686507714266,2.8523055872536637e-05,1427.387460644608,32018.43004371498,3576,0.06138161623769884,0.060713817418971874,3566.0546105233866
65,221.464623125,1426,32636,0.8701622824311823,2.7880880564920934e-05,1427.5694126707015,32607.520419487926,3616,0.06105912843717685,0.06079335210168934,3609.0756755531706
66,222.0032177,1427,33025,0.86932404321908,2.751199579780619e-05,1427.4996942172822,33198.84001902584,3636,0.06077399871735387,0.06086828932726289,3652.1183492264136
67,222.54170692499997,1424,33426,0.8705973257298546,2.7204466149923585e-05,1427.0919160116605,33788.488527485824,3666,0.060992413108128675,0.06094269448837593,3694.9597725882095
68,223.0800908,1423,33900,0.8704844215444587,2.6803104398326776e-05,1427.0457768012589,34375.71847606902,3693,0.06084304698420178,0.06100405857088909,3737.6036829825553
69,223.61836932499997,1429,34305,0.8703398065724872,2.6473409373782918e-05,1427.4047883303992,34962.559854129664,3722,0.060703527694084235,0.06102594455071592,3779.19200887895
70,224.1565425,1430,35028,0.8697053263836744,2.588562790593709e-05,1427.393145937593,35548.235158213545,3777,0.06075356869523435,0.061031068438905725,3819.9590704205475
71,224.69461032499999,1423,35791,0.8700422735223692,2.5315475835730014e-05,1426.8812657138055,36134.131848965306,3831,0.06095966581243788,0.06104885319942429,3860.913248318122
72,225.23257279999999,1420,36505,0.8700397124616915,2.4798053654316418e-05,1426.250288794736,36713.634057395844,3890,0.061251192526161555,0.061065694767111725,3901.2312396656025
73,225.77042992499997,1410,37437,0.8700678242154535,2.4150437844268286e-05,1425.7279213571946,37278.98946748439,3948,0.06129381124875291,0.061080254524658185,3940.731998459686
74,226.30818169999998,1401,38111,0.8699872642519537,2.3698917577007728e-05,1425.6042945479805,37832.89999773421,3986,0.06126170193656498,0.061102455819770835,3980.518720695749
75,226.84582812499997,1403,38621,0.8700242014773532,2.3376436172748487e-05,1425.854356837047,38383.420983487,4034,0.06150340357050127,0.06109992102396769,4019.7873338013687
76,227.3833692,1422,39237,0.8696880407569096,2.299849373943963e-05,1426.1017010577543,38925.37498018001,4105,0.061704958702916535,0.06106897019073084,4057.3605291172294
77,227.92080492499997,1424,39657,0.87010037851645,2.2757836908337037e-05,1426.0103513103081,39453.98260436175,4132,0.0616282223477767,0.061052867446495324,4094.00881107152
78,228.45813529999998,1446,39877,0.8693067287349536,2.261993517563825e-05,1426.1017916600329,39974.67401300066,4151,0.06118692465010147,0.06104345290007232,4130.469161249326
79,228.99536032499998,1463,40147,0.8691277262341458,2.246736961622753e-05,1426.1762440825114,40475.71095607977,4180,0.0610438432472902,0.061031991370737684,4165.557068110183
80,229.53248,1446,40686,0.86926662631248,2.2152564381051988e-05,1425.8185915875508,40947.39876327811,4199,0.06098600974103612,0.06101262531509881,4198.045618247219
81,230.069494325,1431,41491,0.8686441253792921,2.1683577767830556e-05,1425.4816643638314,41402.77415116911,4235,0.06080075206099688,0.06095560476676105,4228.167070601744
82,230.60640329999998,1428,42117,0.868302707705708,2.133998642644715e-05,1425.056513171279,41836.70667512208,4263,0.060498861518977674,0.06090253037917899,4256.938549004426
83,231.143206925,1430,42632,0.8687016218294412,2.108396732754335e-05,1424.2268681057055,42227.818297129365,4284,0.060173642752808724,0.060907218951310634,4284.479172801113
84,231.67990519999998,1437,42928,0.8683284847277679,2.0928116572937935e-05,1423.3683209132437,42576.076060612104,4310,0.060126478914050686,0.06092013114100688,4309.091848059896
85,232.216498125,1433,43185,0.8683608504247778,2.0798065971085884e-05,1422.8411515549342,42900.8908242534,4346,0.06058476617377318,0.06088569388644038,4330.568370744441
86,232.75298569999998,1422,43570,0.868249886800152,2.06000257853315e-05,1422.5679177331037,43202.984846768064,4385,0.06103787640193724,0.060849186085427394,4350.658950372518
87,233.289367925,1408,44036,0.867778574191436,2.0357008871901943e-05,1422.7042515118983,43474.204240185805,4403,0.06096924157134632,0.06083005006491334,4369.783483204519
88,233.8256448,1416,44385,0.8676471171202086,2.019239724266817e-05,1422.9072232666379,43704.907608325506,4426,0.06077911570043119,0.0608183828781458,4386.453305850558
89,234.36181632499998,1425,44435,0.8677489292852631,2.0175515677406723e-05,1422.5910892658678,43886.480962195354,4443,0.06088970631441349,0.060819547561768786,4399.64878026674
90,234.89788249999998,1412,44442,0.8672589311593729,2.0154750898428374e-05,1422.2404810980722,44043.02158599204,4429,0.0608068834605584,0.0608208533172267,4410.992615914206
91,235.433843325,1410,44531,0.8668004592010585,2.010158528793531e-05,1422.18104600328,44186.203356813574,4428,0.06066658439898877,0.060803769030163574,4420.849532265652
92,235.9696988,1421,44716,0.8665578153052318,2.001519379386146e-05,1422.5613037667622,44293.65437495668,4434,0.06030577890090458,0.06076781268561119,4427.842601191335
93,236.505448925,1419,44854,0.8666098942893835,1.9951879688946323e-05,1422.5053795102676,44360.0508052269,4448,0.06043424357781842,0.06074752547175226,4432.074248567266
94,237.04109369999998,1407,44999,0.8664654382940954,1.9876707613646894e-05,1421.850007927672,44394.342272757305,4484,0.0611606293271915,0.060739027570448745,4434.17982287246
95,237.576633125,1413,45053,0.8658853313998153,1.984155204857505e-05,1421.324695916075,44393.26467190565,4502,0.06129055427804833,0.06072959074976008,4433.9821513510215
96,238.11206719999998,1427,45039,0.8659634438688039,1.9856081901054844e-05,1420.9578699404017,44357.54023873615,4499,0.06099788360004048,0.060722843056957,4431.638021246149
97,238.64739592499998,1427,45075,0.8653764850454776,1.9826257446973e-05,1420.4369521393191,44300.13173571231,4507,0.06106487293667684,0.060726128357899346,4427.862307186941
98,239.1826193,1425,45014,0.865240351462597,1.9849970209516096e-05,1420.041586445872,44235.18328840885,4497,0.06097910848363344,0.06074141112246208,4424.259915286785
99,239.71773732499997,1422,44875,0.8654717432609225,1.991742211725134e-05,1419.3852182382116,44180.08115699025,4455,0.06040954128162331,0.06076657709470111,4421.753335296298
100,240.25275,1412,44524,0.8654328986505,2.0074060555077474e-05,1418.3480939545357,44126.727151237006,4421,0.06040284821022812,0.060797108829842524,4419.21533896569
101,240.787657325,1416,44207,0.8649750843904328,2.0213948830137944e-05,1417.4217989082154,44067.74067362709,4427,0.060864199927545354,0.06084326197110705,4417.031393689466
102,241.3224593,1426,43980,0.8650023747478218,2.0327169590351596e-05,1417.0509411311423,44020.16480554402,4430,0.06106281744941619,0.06091382832109667,4417.35869442108
103,241.85715592499997,1418,43659,0.864426750181391,2.0464163968215503e-05,1416.805137149172,43976.89324786434,4401,0.06104460111718685,0.06099193599024329,4418.447575256432
104,242.3917472,1414,43542,0.8640504083213235,2.051012173189621e-05,1417.0843054202542,43926.38997485703,4389,0.061017612152391223,0.06106505044101111,4419.427891911397
105,242.92623312499998,1413,43626,0.8638615542876957,2.0464348761938165e-05,1417.8358513216338,43876.645541234524,4397,0.061065616705623486,0.0611431477496889,4421.291875240578
106,243.46061369999998,1409,43302,0.8647030136247108,2.0640751763414193e-05,1418.2918752406351,43847.37787945282,4388,0.06148879950321088,0.06123664105204759,4425.198509592431
107,243.994888925,1417,43035,0.863747888775786,2.075419022480143e-05,1418.66395614847,43842.84894335008,4371,0.06130787792406343,0.061320506613280486,4430.269020815789
108,244.52905879999997,1427,43277,0.8628771528607923,2.061833101220531e-05,1419.126367528116,43852.498856145394,4366,0.06059727484487141,0.061383144521939895,4435.35398310259
109,245.063123325,1428,43468,0.8633129275796555,2.05355120737311e-05,1419.7138100522957,43881.39133389121,4387,0.060764580226170324,0.06144135373506724,4441.736505923039
110,245.59708249999997,1429,43218,0.8623491049005171,2.0635791832791334e-05,1420.4284128745567,43936.86735826322,4402,0.06135020911888864,0.06150891342930057,4450.75847697561
111,246.130936325,1427,42971,0.862505803534046,2.076126043553933e-05,1420.6583161566243,44030.36447031558,4393,0.06157789845180966,0.06159720018442427,4463.178169380875
112,246.66468479999997,1416,43064,0.8631762817630669,2.0725515793389044e-05,1420.5887109560535,44164.61847380377,4379,0.06140970329581174,0.061698023624758236,4478.804389680316
113,247.19832792499997,1411,43451,0.8629529675416884,2.0526949751229505e-05,1420.2827923622006,44341.30736822946,4394,0.061231891107917616,0.06179806565408709,4497.279145620426
114,247.7318657,1424,44062,0.8621360146885437,2.0219898088290815e-05,1420.0426283720765,44559.838252281195,4446,0.06110453202281484,0.06188961344703555,4518.349770096632
115,248.265298125,1423,44168,0.8624878814902607,2.0177515065861754e-05,1420.2402772429452,44812.36838886411,4472,0.06152124343581249,0.0619734054208159,4541.7657251579
116,248.79862519999998,1415,44004,0.862427427307537,2.0250004163223766e-05,1419.920745656726,45087.798251375156,4478,0.06202576275195439,0.06206264931786087,4566.755441799274
117,249.33184692499998,1399,44285,0.8621956715984717,2.0104362066839332e-05,1419.5248363496069,45376.1466624377,4514,0.06262508783820452,0.06214655544218038,4592.473215701287
118,249.8649633,1408,44830,0.8614594306460737,1.9839238879970374e-05,1419.7522027678724,45694.30374413828,4563,0.06259279866630653,0.062210759102897084,4619.855897075723
119,250.397974325,1427,45236,0.861591555373828,1.966699891286786e-05,1419.7837323608417,46049.86373417203,4594,0.06228538555705251,0.06227634497985772,4649.7488504835
120,250.93087999999997,1431,45775,0.861950076569216,1.943780616473967e-05,1419.1741149289635,46445.46725860066,4639,0.06235648217648486,0.06235129426910222,4682.169448911551
