,x_(nm),baseline_dark,baseline_light,baseline_dark_smoothed,baseline_light_smoothed,raw_signal,calibrated_signal,calibrated_signal_smoothed,raw_signal_smoothed
0,186.23,1052,1071,1023.8980999269559,4047.948110836018,1048,-0.21052631578947367,,1039.9657076183157
1,186.775442325,1036,1070,1032.9922972575573,3022.49316903346,1039,0.08823529411764706,,1044.8673553601411
2,187.3207793,1046,1082,1041.4716412738287,2126.72800409956,1042,-0.1111111111111111,,1049.6357999803695
3,187.86601092499998,1048,1091,1049.3554933826451,1356.0740769941253,1047,-0.023255813953488372,,1054.2723664211694
4,188.41113719999998,1042,1088,1056.6632149908821,705.9528486769627,1051,0.1956521739130435,,1058.7783796247093
5,188.956158125,1041,1081,1063.414167505415,171.78578010787896,1056,0.375,,1063.1551645331574
6,189.50107369999998,1046,1074,1069.6277123331188,-251.00566775331754,1060,0.5,,1067.4040460886824
7,190.045883925,1072,1086,1075.3232108808688,-567.0000339468197,1077,0.35714285714285715,,1071.5263492334527
8,190.59058879999998,1092,1097,1080.5200245555404,-780.7758575128228,1098,1.2,,1075.5233989096369
9,191.135188325,1100,1099,1085.237514764009,-896.9116774915155,1102,-2.0,,1079.396520059403
10,191.67968249999998,1101,1109,1089.4950429131495,-919.9860329230942,1105,0.5,,1083.1470376249197
11,192.22407132499998,1096,1105,1093.3119704098376,-854.5774628477493,1095,-0.1111111111111111,,1086.7762765483556
12,192.7683548,1085,1097,1096.7076586609485,-705.2645063056752,1079,-0.5,,1090.285561771879
13,193.312532925,1071,1093,1099.7014690733572,-476.62570233706174,1075,0.18181818181818182,,1093.6762182376583
14,193.8566057,1077,1103,1102.3127630539393,-173.23958998210583,1088,0.4230769230769231,,1096.9495708878621
15,194.400573125,1093,1107,1104.5609020095699,200.3152917190023,1100,0.5,,1100.1069446646588
16,194.9444352,1113,1116,1106.4652473471244,639.4604037260706,1110,-1.0,,1103.1496645102168
17,195.488191925,1125,1137,1108.0451604734778,1139.6172069989047,1108,-1.4166666666666667,,1106.0790553667043
18,196.0318433,1129,1152,1109.3200027955058,1696.2071624973123,1113,-0.6956521739130435,,1108.8964421762903
19,196.575389325,1117,1141,1110.3091357200835,2304.6517311810976,1110,-0.2916666666666667,,1111.603149881143
20,197.11883,1109,1128,1111.0319206540862,2960.372374010075,1115,0.3157894736842105,,1114.2005034234307
21,197.662165325,1124,1127,1111.507719004389,3658.7905519440446,1119,-1.6666666666666667,,1116.689827745322
22,198.2053953,1123,1120,1111.7558921778673,4395.32772594282,1113,3.3333333333333335,,1119.0724477889853
23,198.74851992499998,1107,1107,1111.7958015813965,5165.4053569662055,1106,-inf,,1121.349688496589
24,199.2915392,1107,1105,1111.6468086218517,5964.444905974,1106,0.5,,1123.5228748103016
25,199.83445312499998,1138,1134,1111.3282747060875,6787.867833925893,1123,3.75,-inf,1125.5933316722699
26,200.3772617,1140,2196,1111.7695078031,7510.4210514393,1122,-0.017045454545454544,-inf,1127.9215610772394
27,200.919964925,1113,6499,1111.4200321637875,8245.77641622671,1118,0.000928332714444857,-inf,1129.4816417132674
28,201.4625628,1101,11504,1110.8176402636313,8997.142041722176,1125,0.002307026819186773,-inf,1130.7432557928614
29,202.005055325,1101,13604,1110.3667127228036,9762.81256653586,1133,0.002559385747420619,-inf,1132.4837255656764
30,202.5474425,1105,14499,1109.6142834492075,10538.467281251922,1148,0.003210392713155144,-inf,1134.1849192506975
31,203.089724325,1104,15163,1108.3513782871428,11322.863711522128,1146,0.002987410199871968,-inf,1135.4711091983745
32,203.63190079999998,1098,15808,1106.9717320890406,12116.186368886945,1148,0.003399048266485384,-inf,1136.280935015494
33,204.173971925,1096,16240,1106.324220254118,12916.820471584613,1150,0.0035657686212361333,-inf,1137.2301071371726
34,204.71593769999998,1104,16571,1106.0238510498327,13716.200457541245,1147,0.0027801124975754834,-inf,1138.9046411017018
35,205.257798125,1104,16825,1105.9764887086699,14505.887041608818,1145,0.002607976591819859,-inf,1140.7382726675357
36,205.7995532,1095,17154,1105.9352646718853,15280.65154363603,1147,0.003238059655022106,-inf,1142.5778839837603
37,206.34120292499998,1095,17709,1105.7369815850657,16042.381571496217,1145,0.003009510051763573,-inf,1143.9262723957288
38,206.88274729999998,1094,18324,1105.12383066432,16791.558200638425,1139,0.00261172373766686,-inf,1144.612471403634
39,207.424186325,1088,18618,1103.7973227026448,17518.910235792097,1134,0.0026240730176839704,-inf,1144.8603818885827
40,207.96552,1091,18831,1102.7444562730539,18221.248884459095,1134,0.002423900789177001,-inf,1145.055788353055
41,208.506748325,1100,19158,1102.0213141860306,18899.529207909214,1140,0.0022150847269908074,-inf,1145.34279372124
42,209.0478713,1105,19517,1101.6563682076394,19548.25604203908,1158,0.0028785574625244405,-inf,1145.7853858524322
43,209.588888925,1107,19965,1101.4357516591333,20164.01039661109,1163,0.002969561989606533,inf,1146.0490837844352
44,210.12980119999997,1105,20319,1101.7355999003162,20745.220072934437,1152,0.0024461330280004163,inf,1146.318625563411
45,210.670608125,1102,20711,1101.986998572993,21278.692722371557,1140,0.00193788566474578,inf,1146.5791750662308
46,211.2113097,1096,21023,1102.075199891256,21761.793381503125,1132,0.0018065940683494755,inf,1147.0030351763128
47,211.751905925,1096,21172,1102.791886565926,22188.54173367418,1141,0.0022414823670053796,inf,1147.3119436453608
48,212.29239679999998,1100,21466,1103.5396271716022,22552.463430654847,1154,0.0026514779534518315,inf,1147.2218623298156
49,212.83278232499998,1106,21831,1103.8232802554771,22860.35357539198,1148,0.0020265379975874546,-0.08995261929327404,1146.786994042878
50,213.37306249999997,1112,22176,1103.9561484971134,23112.695916101846,1151,0.0018515001898974555,-0.09745070135917155,1146.237106163198
51,213.91323732499998,1107,22664,1104.4532378989118,23301.05832521643,1144,0.0017163798302175627,0.0024231068434083444,1145.4362273210952
52,214.45330679999998,1110,23271,1105.0814967496221,23459.742848082184,1153,0.0019403456522720094,0.0018546216463088366,1144.7136514983133
53,214.993270925,1121,23716,1104.5803528958543,23698.190355386985,1158,0.0016375304270856384,0.001757178887160939,1143.3526014179038
54,215.5331297,1111,24128,1103.3910394346206,24056.818115925158,1137,0.0011295998609723247,0.001694115017668211,1141.7007180230364
55,216.07288312499998,1106,24583,1102.9757865410102,24463.11026297265,1130,0.0010222771222899007,0.0016443044347516918,1141.2174681193012
56,216.61253119999998,1112,24978,1103.133932818389,24883.832884096555,1137,0.0010475152937232883,0.0016233214413694365,1141.8812657138108
57,217.152073925,1111,25247,1103.6056309315968,25319.469908717718,1147,0.0014915478952601923,0.0015998634811907565,1142.8635303177657
58,217.69151129999997,1104,25451,1103.8225101361088,25772.02641056373,1152,0.0019714954614531563,0.0015966510158885562,1143.999048676052
59,218.230843325,1108,25815,1103.9780515979764,26240.74608711359,1144,0.0014570769417573967,0.0016028809070336015,1145.1968107997695
60,218.77006999999998,1106,26356,1104.8915037712986,26723.106638881458,1139,0.001306930693069307,0.0015737294920741061,1146.2483861468895
61,219.30919132499997,1106,27006,1106.006749869738,27210.20793222898,1138,0.0012355212355212356,0.0015295005496721282,1146.9884029083112
62,219.84820729999998,1105,27491,1106.5832521687707,27704.21427438847,1140,0.00132646100204654,0.0015195638451408577,1147.9786858139262
63,220.38711792499998,1105,27833,1107.1610908514137,28216.836734693337,1139,0.0012720742292726729,0.0015186336120248491,1149.353711295817
64,220.9259232,1110,28373,1107.6583388071997,28755.118915490173,1140,0.0011003924733154825,0.0015130716380275806,1150.6588371197313
65,221.464623125,1100,28934,1107.6241364470104,29308.023783097582,1146,0.0016526550262269167,0.0015125800159453838,1151.5455842714223
66,222.0032177,1099,29339,1107.3004371559732,29865.43613671827,1149,0.0017705382436260624,0.0014979893080053217,1151.6766178169162
67,222.54170692499997,1105,29805,1107.1605019366025,30424.32476386723,1150,0.0015679442508710801,0.0014742938516430206,1151.7279440077696
68,223.0800908,1115,30273,1107.2638111848298,30985.47192461831,1151,0.0012346525824816516,0.0014685472275060305,1152.2576955310205
69,223.61836932499997,1106,30651,1107.5191284060581,31547.187229608226,1153,0.001590793704518531,0.001467171912820911,1152.9571904233171
70,224.1565425,1098,31327,1107.760198418969,32105.41561530211,1147,0.0016209600052929307,0.0014607253030167475,1153.6126979093303
71,224.69461032499999,1095,31987,1107.9009037577084,32658.5877822821,1142,0.0015214294963097241,0.0014378355488580139,1153.7866769349027
72,225.23257279999999,1088,32764,1107.6036150308967,33197.14362726159,1146,0.0018310392726354338,0.0014163669869703432,1153.5778839837599
73,225.77042992499997,1086,33676,1107.1948628507796,33714.13597136903,1150,0.001963792574409328,0.0014177998071524497,1153.7614668508693
74,226.30818169999998,1084,34245,1106.941901288796,34207.79170536073,1150,0.001990289798256989,0.0014301214638770244,1154.2296088246399
75,226.84582812499997,1086,34648,1106.696912727334,34677.83752746315,1148,0.00184732733448543,0.0014220259257518382,1154.2070262066868
76,227.3833692,1107,35207,1106.491925071894,35117.092414323546,1171,0.00187683284457478,0.0014034559150183073,1153.9246642052826
77,227.92080492499997,1113,35573,1105.928514802126,35523.19162381865,1168,0.001596053395240859,0.0013966699143728248,1153.570998210583
78,228.45813529999998,1133,35800,1105.5001472286815,35894.9620829457,1187,0.0015576773300256727,0.0013971024549283477,1153.4670094452654
79,228.99536032499998,1153,36097,1105.6208294638398,36220.476726538975,1209,0.0016025641025641025,0.0013805032615560964,1153.461799814243
80,229.53248,1134,36522,1105.5455842714232,36491.270221295366,1183,0.0013846501638973662,0.0013449078233469423,1152.7657478085353
81,230.069494325,1123,37081,1105.6712722824768,36709.630908966654,1162,0.0010845986984815619,0.00129600006832179,1151.9163740967865
82,230.60640329999998,1114,37464,1106.1031053930792,36867.92432444606,1150,0.0009903713892709767,0.0012642066618094965,1151.6771840811575
83,231.143206925,1118,37786,1106.4635439081082,36952.88035969033,1146,0.0007636085960510527,0.00125147031417466,1151.7147387256568
84,231.67990519999998,1119,37900,1106.374595121046,36960.87560307071,1145,0.0007068867078110981,0.0012491104925031356,1151.4841559264994
85,232.216498125,1101,37920,1106.2780357425777,36899.06570930188,1146,0.0012221950623319481,0.0012313900835950462,1150.8023511291087
86,232.75298569999998,1092,38075,1106.1106027316375,36771.549593421565,1154,0.0016764459346186086,0.0012258755105474112,1150.1902647851375
87,233.289367925,1098,38148,1106.1752701080222,36578.93279575911,1147,0.0013225371120107962,0.0012185281494021146,1149.674013001405
88,233.8256448,1094,37965,1106.319282429932,36313.959251624474,1129,0.0009492555124623688,0.001203648532921639,1149.0111667308213
89,234.36181632499998,1091,37499,1106.6800380529357,35969.83988312237,1119,0.0007690617446715008,0.0011678303122885942,1148.0316881469348
90,234.89788249999998,1098,36926,1107.2904256041827,35560.552175586534,1120,0.0006140448810985821,0.0011223082114360696,1146.9710752225199
91,235.433843325,1107,36418,1107.3440395025723,35093.35038166143,1139,0.0009062331851264478,0.001103613909584897,1145.9311875693454
92,235.9696988,1108,35949,1107.2709008131342,34561.64162268615,1144,0.001033265405700181,0.0010923192166663591,1144.8540623796468
93,236.505448925,1104,35316,1106.8672903123302,33966.52417948246,1145,0.0011984099146498304,0.0011111340110497984,1143.9147885569103
94,237.04109369999998,1100,34661,1106.2292011143868,33315.73390110697,1146,0.0013706385387801316,0.0011529350646189262,1143.0617907540156
95,237.576633125,1097,33874,1105.6145552560433,32608.953792837267,1137,0.0012203679409341917,0.0012067597288739958,1142.500328433238
96,238.11206719999998,1095,32983,1105.1623819338845,31857.243923984082,1139,0.0013798294029101856,0.0012469094783729726,1141.7435049491276
97,238.64739592499998,1101,32141,1104.6811932319888,31072.696119956818,1140,0.0012564432989690723,0.0012846216411489097,1140.8336089152424
98,239.1826193,1102,31152,1104.0347912749794,30271.253437223364,1131,0.0009650582362728785,0.0013404539831386119,1140.2568801105126
99,239.71773732499997,1098,30139,1103.189086955516,29471.461822464273,1131,0.001136324506731862,0.0014127745041789524,1139.9759224444279
100,240.25275,1102,28993,1102.1912387596337,28670.03800765534,1140,0.0013624466673837438,0.0014929353830597342,1139.8046388366447
101,240.787657325,1107,27862,1101.2060522321926,27868.484858093645,1152,0.0016819286114744907,0.0015682515140465012,1139.5307481482942
102,241.3224593,1116,26775,1100.896985209157,27087.679743595032,1148,0.001247125764838848,0.0016447999935221144,1140.0464110172152
103,241.85715592499997,1117,25712,1100.8227592923752,26329.324174952497,1149,0.0013010774547672292,0.0017091071857287666,1140.4566354843607
104,242.3917472,1113,24780,1101.3821604113132,25586.70866837252,1153,0.001690117040605062,0.0017649776022698096,1141.2569707127916
105,242.92623312499998,1113,24011,1102.6493238804744,24882.33364289064,1157,0.0019215652022010656,0.0018268309285982241,1143.0395931957469
106,243.46061369999998,1102,23132,1103.3964076196305,24238.658157602196,1154,0.0023604176123467996,0.001889032496250415,1144.434890937485
107,243.994888925,1097,22387,1104.0572153389446,23659.026478515487,1137,0.0018788163457022077,0.0019247735210659582,1144.88867245009
108,244.52905879999997,1098,21933,1104.6501619515518,23142.4835443607,1134,0.0017278617710583153,0.0019497988983644796,1144.9474506783624
109,245.063123325,1106,21524,1105.68780719833,22700.703300187564,1147,0.002008032128514056,0.0019707774750989827,1145.4117647058604
110,245.59708249999997,1111,21030,1106.6481007497125,22344.965050170587,1155,0.0022089462322405743,0.001992694252336323,1145.9981653038353
111,246.130936325,1113,20610,1106.9048449568293,22090.443022491592,1147,0.0017438580294404267,0.0020271764922449365,1146.5284377901883
112,246.66468479999997,1106,20375,1107.114793087025,21950.014654918155,1140,0.00176449218952722,0.0020696534490193316,1147.4778590681335
113,247.19832792499997,1102,20358,1107.9286960066834,21926.283992842003,1144,0.0021811383464894057,0.00208814563570243,1148.2403451946595
114,247.7318657,1093,20584,1108.2623615483717,22012.25710661581,1152,0.0030270381201580217,0.0020969238022909764,1148.3726018709149
115,248.265298125,1087,20711,1108.1437631656227,22204.064599424255,1155,0.003465144720750102,0.002111680892494357,1148.6152121225628
116,248.79862519999998,1093,20801,1108.4341661192568,22496.140320278628,1161,0.003450375482037751,0.002114055512128971,1148.9716867879006
117,249.33184692499998,1093,21159,1108.8616503204844,22878.39930689213,1168,0.0037376657031795075,0.0021246339038121396,1149.928605404404
118,249.8649633,1109,21785,1109.3654442909026,23367.054746426424,1168,0.002853550009673051,0.0021420886157517485,1151.498788194501
119,250.397974325,1131,22428,1109.8811977621024,23968.614192846493,1170,0.0018312438371601634,0.00216001704571954,1153.3455570907386
120,250.93087999999997,1127,23281,1109.949217422797,24682.620920065667,1166,0.001760404441635822,0.0021875479199442013,1155.4775646107278
121,251.46368032499998,1116,24411,1109.4392398468608,25498.8340392756,1170,0.00231809401159047,0.0022213427718579663,1157.7503680717348
122,251.99637529999998,1114,25518,1108.9823325556424,26393.111123694256,1173,0.0024176364530404853,0.002258124320871275,1160.3510385285967
123,252.52896492499997,1111,26607,1108.6881016557352,27363.135790164597,1168,0.0022356448070285535,0.002290359669827001,1163.1748623977671
124,253.06144919999997,1113,27621,1108.2357697795887,28402.397789303857,1164,0.001923947487550928,0.002316845487092743,1166.011279983669
125,253.593828125,1113,28810,1107.7145348705308,29511.251240118123,1162,0.0017691446727082355,0.0023550324295215715,1169.6553262814336
126,254.1261017,1111,30168,1107.665972049176,30681.006568664616,1165,0.0018584162164022439,0.002403203529895092,1174.5365240435574
127,254.65826992499998,1107,31352,1107.8796348727958,31890.423543001496,1165,0.0019176723425359565,0.002463483217962037,1180.330290606786
128,255.19033279999996,1105,32648,1108.1314186051566,33127.9471109192,1172,0.0021240845829502584,0.002512557078999983,1186.1583274819136
129,255.722290325,1106,34412,1108.226777503433,34388.562821354295,1188,0.0024620188554614784,0.002571171298645827,1192.6311807741738
130,256.2541425,1109,35860,1108.2397109787098,35668.06661532469,1193,0.002417196627435182,0.00265538677180102,1200.3882307639808
131,256.78588932499997,1116,37001,1108.3591700831062,36952.073591700115,1197,0.002257210533649157,0.0027642005144472652,1209.5228204489113
132,257.3175308,1114,38515,1108.13454438377,38218.58871095534,1223,0.002914360578594155,0.0029062178492571767,1219.6495503861693
133,257.849066925,1111,40288,1107.5109968515496,39453.45536705173,1240,0.0032927482961941958,0.00305420335646395,1229.9923441074307
134,258.3804977,1102,41992,1106.7724297265863,40659.34505877745,1237,0.003301540719002201,0.0032180608151822637,1241.1727105936477
135,258.91182312499996,1108,43423,1106.4649029422876,41837.84774286993,1246,0.0032612548741581,0.0034097174799083752,1254.1036490067484
136,259.4430432,1116,44458,1106.3111735259931,42972.7168678784,1265,0.0034377739836648053,0.003630869422809679,1268.529049355567
137,259.974157925,1108,45347,1106.4311535934914,44060.08308228867,1278,0.0038427631727661112,0.003856303838165077,1283.9994790368733
138,260.5051673,1090,46203,1106.428186368866,45102.25511336524,1299,0.004632810941413783,0.004109353494947852,1301.0239869532468
139,261.03607132499997,1098,47143,1106.04613921038,46082.31559038621,1325,0.004929959821913346,0.004405936682153732,1319.4241998686014
140,261.56687,1107,47970,1105.2475027746736,46996.118190671594,1333,0.004822567910718477,0.004757183304104615,1339.128428729957
141,262.097563325,1097,48865,1104.1460961742976,47841.92183288319,1352,0.005338301791994641,0.0051528796262980715,1360.158033024505
142,262.62815129999996,1099,50186,1102.991823144331,48607.4118779578,1377,0.005663413938517326,0.005591699873141105,1382.8968719563034
143,263.158633925,1096,51005,1101.7302543658764,49299.516183831074,1392,0.005930794045162195,0.006086885909960076,1407.7814446533062
144,263.6890112,1089,51328,1101.2073433146634,49918.679086728065,1417,0.006528792372459643,0.0065836688711149415,1433.9983465083874
145,264.219283125,1097,51438,1101.574350494894,50448.3168814686,1445,0.006912854333445899,0.0070800111087086035,1461.4048789326773
146,264.7494497,1112,51511,1101.551043058712,50899.03814355834,1470,0.007103315541975039,0.007614227011388608,1490.039479942892
147,265.27951092499995,1107,52059,1101.1537294162736,51290.79856848301,1502,0.007752394410425498,0.008198222328408581,1520.4094090466085
148,265.8094668,1106,52517,1100.9657976397896,51617.66773879265,1541,0.008461224251619303,0.008816745155920416,1552.5145303404083
149,266.33931732499997,1112,52784,1100.5108835987014,51863.36159369309,1581,0.009076482427620375,0.009474265993639923,1585.6883961131323
150,266.8690625,1110,52668,1100.3310833767257,52018.182019976804,1605,0.009600837891306878,0.01014986364631716,1619.3188067679594
151,267.398702325,1096,52280,1100.4303834741233,52099.118145370354,1625,0.010335261019068459,0.010841890210270167,1653.6206935604114
152,267.9282368,1089,52177,1100.4391945457216,52124.0426283711,1663,0.01123551518947698,0.011564241195802991,1689.1057555097188
153,268.457665925,1095,52087,1100.6989286280339,52084.27044780075,1721,0.012276435519297144,0.012319462940795778,1725.9562844005195
154,268.9869897,1102,51744,1101.0781671158818,51978.51860744199,1769,0.013170885825994233,0.013120690272954507,1764.2190536591656
155,269.516208125,1102,51192,1101.3540963555022,51827.4063738693,1802,0.013974845278498703,0.01396881578804058,1803.7610364900333
