,x_(nm),baseline_dark,baseline_light,baseline_mirror,baseline_calibration,baseline_dark_smoothed,baseline_light_smoothed,raw_signal,calibrated_signal,calibrated_signal_smoothed,raw_signal_smoothed
0,186.23,1061,1058,0.3621226043733797,-0.12070753479112656,1037.7151155253255,3825.782694758304,1034,3.259103439360417,,1176.2758094045548
1,186.775442325,1050,1059,1.18800459154587,0.1320005101717633,1045.2404159986838,2877.4892354490826,1035,-1.9800076525764496,,1128.6388817742866
2,187.3207793,1048,1051,1.908567993433533,0.6361893311445109,1052.2813873170614,2047.8285819085163,1040,-5.089514649156087,,1087.314134516893
3,187.86601092499998,1055,1054,1.7279185264672412,-1.7279185264672412,1058.8525990108988,1332.7426071380228,1040,25.918777897008617,,1052.0973133714053
4,188.41113719999998,1056,1067,1.043047789334166,0.094822526303106,1064.9686206106371,728.1731841390206,1030,-2.465385683880756,,1022.7841640768546
5,188.956158125,1061,1067,0.840365554154959,0.14006092569249315,1070.6440216467167,230.0621859129269,1022,-5.462376102007233,,999.1704323722715
6,189.50107369999998,1064,1059,0.8202728553565946,-0.1640545710713189,1075.893371649579,-165.64851453883966,1032,5.249746274282205,,981.0518639966872
7,190.045883925,1073,1073,0.837733819880384,inf,1080.731240149664,-463.01704421486147,1050,-inf,,968.2242046891325
8,190.59058879999998,1087,1083,0.8116271105193998,-0.20290677762984996,1085.172196677413,-666.1015301137209,1058,5.884296551265649,,960.4832001886386
9,191.135188325,1093,1084,0.8262856362484797,-0.09180951513871997,1089.2308107632668,-778.9600992339997,1061,2.937904484439039,,957.6245962342364
10,191.67968249999998,1105,1092,0.8012221689422371,-0.06163247453401824,1092.921651937666,-805.6508785742794,1072,2.033871659622602,,959.4441385649568
11,192.22407132499998,1107,1082,0.7775424502505143,-0.03110169801002057,1096.2592897310515,-750.2319951331433,1069,1.1818645243807817,,965.7375729198308
12,192.7683548,1088,1076,0.7753865851703869,-0.06461554876419891,1099.2582936738638,-616.7615759091718,1061,1.7446198166333704,,976.3006450378895
13,193.312532925,1081,1072,0.7956261498651602,-0.08840290554057335,1101.9332332965441,-409.29774790094916,1057,2.1216697329737606,,990.9291006581636
14,193.8566057,1091,1083,0.7908861747409445,-0.09886077184261806,1104.2986781295328,-131.89863810705447,1070,2.076076208694979,,1009.4186855196845
15,194.400573125,1109,1102,0.7942231778648126,-0.1134604539806875,1106.369197703271,211.3776264739272,1088,2.3826695335944374,,1031.5651453614828
16,194.9444352,1113,1105,0.7947581770897779,-0.09934477213622224,1108.1593615481995,616.4729188434162,1102,1.0927924934984445,,1057.1642259225896
17,195.488191925,1116,1118,0.7914877943554887,0.39574389717774433,1109.6837391947588,1079.3291120028284,1116,0.0,,1086.011672942036
18,196.0318433,1119,1126,0.7911116722494277,0.11301595317848967,1110.9569001733898,1595.8880789535838,1127,0.9041276254279174,,1117.903232158853
19,196.575389325,1115,1109,0.7900325230816138,-0.13167208718026896,1111.9934140145333,2162.091692697098,1114,0.13167208718026896,,1152.6346493120714
20,197.11883,1115,1091,0.798472358442206,-0.03326968160175858,1112.8078502486303,2773.881826234792,1092,0.7652026768404474,,1190.001670140722
21,197.662165325,1120,1091,0.7981102791346143,-0.02752104410809015,1113.4147784061213,3427.2003525680802,1096,0.6605050585941636,,1229.8000403838364
22,198.2053953,1118,1098,0.8040599544843242,-0.04020299772421621,1113.8287680174471,4117.989144698384,1098,0.8040599544843242,,1271.825505780445
23,198.74851992499998,1102,1092,0.8074165803696804,-0.08074165803696805,1114.0643886130485,4842.190075627121,1088,1.1303832125175526,,1315.873812069579
24,199.2915392,1105,1096,0.8060625325032217,-0.08956250361146907,1114.1362097233666,5595.745018355703,1097,0.7165000288917526,,1361.7407049902693
25,199.83445312499998,1135,1123,0.8122546130835153,-0.06768788442362628,1114.0588008788209,6374.595845885403,1127,0.5415030753890102,-inf,1409.2219302815195
26,200.3772617,1139,2095,0.8144257223941842,0.0008519097514583517,1114.5587442523968,7066.570137488821,1180,0.03492829980979242,-inf,1452.7352374911952
27,200.919964925,1112,6115,0.8150182986479615,0.00016290591617988437,1114.4175632516942,7774.664907472274,1393,0.04577656244654751,inf,1497.0542028131722
28,201.4625628,1099,10696,0.8232603193402961,8.57830904803893e-05,1113.4993544587433,8498.174296133386,1640,0.046408651949890606,inf,1542.6569118213026
29,202.005055325,1100,12623,0.8194894939197722,7.111772055191984e-05,1113.1017463588994,9237.413961810962,1765,0.04729328416702669,inf,1590.2271625631079
30,202.5474425,1106,13523,0.8269202298982968,6.659581460081315e-05,1112.639493533241,9991.327504586548,1836,0.0486149446585936,inf,1638.2999841445699
31,203.089724325,1105,14182,0.8298864771900701,6.34615337761008e-05,1111.7276722009346,10759.1308749913,1878,0.04905576560892592,inf,1686.5528098031343
32,203.63190079999998,1118,14854,0.8293789756785952,6.0379948724417236e-05,1110.6313393281628,11541.522911050994,1916,0.04818319908208495,inf,1735.837821921188
33,204.173971925,1122,15337,0.8303112569560028,5.841092205107301e-05,1109.970916668533,12335.328410609289,1952,0.048481065302390595,-0.03461907342885634,1786.507146254694
34,204.71593769999998,1123,15696,0.832804584655424,5.7147092887903925e-05,1109.8874040181897,13131.288364402113,1991,0.04960367662670061,0.034051966483461406,1838.219755826824
35,205.257798125,1121,16037,0.8371769300637781,5.612610150601891e-05,1110.001789394982,13922.64196244509,2005,0.04961547373132072,0.03634028908475283,1890.3117397902197
36,205.7995532,1114,16468,0.8381556767340916,5.458875060141277e-05,1110.3742327119314,14705.622981267701,2034,0.050221650553299746,0.022066429277388614,1942.247412172379
37,206.34120292499998,1112,17069,0.840625124319978,5.268064951557173e-05,1110.772588280574,15482.32437880783,2085,0.05125827197865129,-0.01183633277920616,1994.5437269246938
38,206.88274729999998,1101,17682,0.8415937915656597,5.0756515986108177e-05,1110.0660717116823,16249.183514915088,2119,0.051670133273858124,-0.024170931844353025,2046.5364107906923
39,207.424186325,1095,18012,0.8431564976534377,4.984078132372393e-05,1108.562277741264,16998.020068404396,2137,0.05193409413932033,-0.017344941701420074,2097.1095608054143
40,207.96552,1093,18269,0.844165982526256,4.9147996188068e-05,1107.7385897755116,17728.874923553987,2154,0.05214602395554015,-0.0024241271836193045,2147.32277061764
41,208.506748325,1086,18640,0.8476484869242688,4.82880532598991e-05,1107.575392421098,18442.470678837217,2198,0.0536963152250078,0.0322148038644063,2197.485356406672
42,209.0478713,1094,19066,0.8491768105118729,4.72499894564808e-05,1107.0442818636677,19134.78665428399,2258,0.05499898772734365,0.037126226500318694,2246.964212099891
43,209.588888925,1107,19613,0.8502736512177026,4.5945836551264595e-05,1106.7650682914464,19800.54991052987,2302,0.05490527467876119,0.01147601890629266,2295.7212620896976
44,210.12980119999997,1108,20060,0.8513731200582484,4.4922600256344895e-05,1107.0569435321086,20436.271285872448,2319,0.05440126891043367,0.013663170064624554,2343.725157987679
45,210.670608125,1097,20512,0.8534308197221572,4.395729177039182e-05,1107.3609594781096,21028.636866066776,2347,0.054946614712989776,-0.005229818331823733,2389.443973815896
46,211.2113097,1089,20900,0.8557212941711507,4.3194250374597486e-05,1107.7053613898179,21576.180932750045,2381,0.05580697148397995,-0.004075016857436406,2432.48116605128
47,211.751905925,1095,21094,0.8575135521308375,4.2877821497616754e-05,1108.1861423814596,22074.479354005332,2424,0.05698462477033266,-0.0029705113116971745,2473.5471924618428
48,212.29239679999998,1114,21444,0.8580327959771828,4.2205253122340525e-05,1108.418944936444,22515.197173208475,2466,0.05706150222140439,0.005654194099948589,2511.571632426507
49,212.83278232499998,1117,21892,0.8587529108532552,4.133588018547558e-05,1108.2435389249827,22903.057894855618,2486,0.05658881997391607,0.02870688690964623,2546.2976284853075
50,213.37306249999997,1119,22353,0.8598387128136875,4.0493487464146536e-05,1108.1349747445934,23239.3449681755,2519,0.05669088244980515,0.044318948040645595,2578.188180932701
51,213.91323732499998,1109,22900,0.8611437003932625,3.95183195077446e-05,1108.2252825658352,23514.300278601553,2570,0.05773626480081486,0.058001590930003455,2606.9008811071094
52,214.45330679999998,1113,23543,0.8624756676121401,3.8451879964874725e-05,1108.6858139481994,23758.730412919434,2632,0.05840840566664471,0.058108114240762836,2634.3235633875693
53,214.993270925,1131,24150,0.8630074298534857,3.7491091266062196e-05,1108.0546105234332,24078.09150830097,2681,0.058111191462396405,0.05846991998484061,2665.156923146566
54,215.5331297,1114,24692,0.8629495266956824,3.659977634641116e-05,1106.8292600058678,24505.94448345329,2696,0.05790084618002246,0.05881120307100666,2701.2482728940113
55,216.07288312499998,1109,25203,0.8648478670709356,3.589474006271004e-05,1106.6513397811743,24972.477043647166,2743,0.05865200526246821,0.059139732141293325,2740.4697275135945
56,216.61253119999998,1122,25636,0.8650803831098881,3.528923811331844e-05,1107.0476341479775,25446.17413757907,2798,0.0591447630779217,0.0594867942986646,2781.0706471267217
57,217.152073925,1126,25918,0.8652291434094919,3.489952982451968e-05,1107.7939024666257,25928.848037327643,2838,0.05974799505957769,0.059820536350578185,2822.4787197897485
58,217.69151129999997,1115,26194,0.8680312398394996,3.461187606521391e-05,1108.8720242813895,26427.6332646261,2870,0.06074384249445041,0.06010028972365617,2864.7262905161515
59,218.230843325,1104,26662,0.868212549145114,3.3970285200137495e-05,1109.7370042356351,26939.206890302776,2898,0.060942691649046664,0.06036710573626299,2907.9831253255466
60,218.77006999999998,1098,27259,0.868144571802742,3.318468605186124e-05,1110.6405354594456,27458.41595506074,2937,0.06102663764937282,0.06062686906642242,2951.706290063139
61,219.30919132499997,1097,27913,0.8681762475955156,3.237530756248193e-05,1111.6264921062552,27979.56236834303,2999,0.06157783498384064,0.06084899435057542,2994.9413123739496
62,219.84820729999998,1095,28382,0.868951283960652,3.184488159052487e-05,1112.4954359101919,28504.92407528995,3024,0.06142877658812247,0.06106300103062682,3038.57011483833
63,220.38711792499998,1110,28857,0.8691522224557424,3.1324187207833e-05,1112.9966703662383,29042.74817096594,3056,0.06095686830644302,0.061275753551118424,3082.7912296993677
64,220.9259232,1127,29507,0.8692686507714266,3.062962123930326e-05,1112.9272010690856,29598.14251738374,3123,0.061136723993649306,0.06147373968240667,3127.6734240865567
65,221.464623125,1111,30072,0.8701622824311823,3.0046002639107154e-05,1112.6571156764378,30162.366531517688,3167,0.06177458142600431,0.06165492707623375,3172.9606786110057
66,222.0032177,1104,30498,0.86932404321908,2.9574880697389943e-05,1112.2341615891426,30725.560284490562,3200,0.06198894994172932,0.061802470097088454,3217.3091349746833
67,222.54170692499997,1121,30902,0.8705973257298546,2.9233314050228486e-05,1111.1771048041646,31286.281206821746,3245,0.062091559042685304,0.061971417059917024,3261.5114951640408
68,223.0800908,1118,31351,0.8704844215444587,2.8792525437252628e-05,1110.2436068766917,31847.88479920209,3286,0.0624221951479637,0.06215333073716381,3306.2443316948784
69,223.61836932499997,1103,31768,0.8703398065724872,2.8382188376732013e-05,1109.6319735441134,32411.507961674615,3318,0.0628665472544614,0.06231291779721065,3351.0933429975125
70,224.1565425,1098,32486,0.8697053263836744,2.770821098456972e-05,1108.6488482185116,32973.7910031931,3369,0.06292534714595784,0.06244073757219713,3395.069809055633
71,224.69461032499999,1095,33143,0.8700422735223692,2.71480988992252e-05,1107.0627647285116,33534.6027769592,3413,0.06292929324840402,0.06255714915769414,3438.1791433553894
72,225.23257279999999,1094,33854,0.8700397124616915,2.6557988780881916e-05,1105.2503793970207,34089.65969784075,3447,0.06249094760141515,0.06267125769784301,3480.5323563386946
73,225.77042992499997,1100,34762,0.8700678242154535,2.5847181516708855e-05,1103.7375025481679,34632.3844481182,3507,0.06221416591071821,0.06279565870856853,3522.5119028742897
74,226.30818169999998,1096,35389,0.8699872642519537,2.5369237577696723e-05,1102.619628983648,35165.88763052323,3555,0.062382955203556245,0.0629046022089386,3563.991234229472
75,226.84582812499997,1093,35823,0.8700242014773532,2.505108555938247e-05,1101.5194908151727,35694.52800742869,3596,0.06270286715513432,0.06297843154521818,3604.361163333189
76,227.3833692,1118,36451,0.8696880407569096,2.461404468222086e-05,1100.692880925934,36212.66479421889,3665,0.06269197180561653,0.06302248627274759,3643.296201499398
77,227.92080492499997,1117,36914,0.87010037851645,2.4306516705770036e-05,1099.796190174162,36717.51527780853,3691,0.06256497400065207,0.06306489928647323,3680.9544723549093
78,228.45813529999998,1134,37142,0.8693067287349536,2.4142044232808087e-05,1098.8472219076098,37211.09232372123,3731,0.06269688887260261,0.06311886544239889,3718.1714874628383
79,228.99536032499998,1147,37450,0.8691277262341458,2.394093397884874e-05,1098.6849758771223,37687.883983781474,3778,0.06298859729835103,0.06314312572649895,3754.062719427321
80,229.53248,1115,37982,0.86926662631248,2.357844756319961e-05,1098.417155541441,38141.517112504655,3802,0.06335528860231734,0.06313417390943908,3787.211556320568
81,230.069494325,1100,38765,0.8686441253792921,2.3062368920198915e-05,1097.9572357244574,38578.14369521319,3841,0.06321395321026523,0.06312348011027881,3818.862284536383
82,230.60640329999998,1083,39337,0.868302707705708,2.2698350700729547e-05,1098.0831728917772,38988.64619810113,3873,0.06332839845503543,0.0631078383249626,3848.9456159821684
83,231.143206925,1080,39710,0.8687016218294412,2.248774584078284e-05,1098.467054746406,39355.00983034647,3898,0.06337046777932605,0.06309524971855475,3876.164601689658
84,231.67990519999998,1089,39993,0.8683284847277679,2.2319773923703678e-05,1098.2340030351552,39677.31894267065,3911,0.06298640201269178,0.06310316633565001,3900.203220910931
85,232.216498125,1088,40275,0.8683608504247778,2.215941129519427e-05,1097.3899069061376,39971.51471154422,3942,0.06324295983648444,0.0631160166101112,3921.8421028788116
86,232.75298569999998,1082,40679,0.868249886800152,2.192716334066096e-05,1096.390744977215,40241.9372352707,3977,0.06347913787121348,0.06310928765214242,3940.8935196719435
87,233.289367925,1076,41059,0.867778574191436,2.1703688422365404e-05,1095.496659040954,40480.874040181334,3991,0.06326625175119516,0.06310825031384869,3957.9798862940643
88,233.8256448,1083,41303,0.8676471171202086,2.1572529018403993e-05,1094.5078484223668,40676.928446849655,4017,0.06329380013999732,0.06310978166888229,3972.082697229759
89,234.36181632499998,1088,41347,0.8677489292852631,2.1554160045834798e-05,1094.0703300187793,40824.15375206607,4020,0.06319679725438762,0.06309752793990317,3982.784049468768
90,234.89788249999998,1084,41316,0.8672589311593729,2.1556445892806048e-05,1094.2634940768548,40941.52189177479,4005,0.06296637845288647,0.06307447711874074,3991.516750096188
91,235.433843325,1081,41433,0.8668004592010585,2.1480978866005614e-05,1094.0330471811155,41037.10215406839,4024,0.06321852080265453,0.06305649163686053,3998.3010713718686
92,235.9696988,1089,41627,0.8665578153052318,2.1376432367290733e-05,1093.775283698364,41098.240435796164,4038,0.06303909905114037,0.06302351228202159,4001.935853586641
93,236.505448925,1087,41689,0.8666098942893835,2.1344019858366177e-05,1093.7980022197348,41117.974291602644,4043,0.06309292270133042,0.0629746263138684,4001.9930915761765
94,237.04109369999998,1085,41769,0.8664654382940954,2.1297449569710336e-05,1093.5561847380252,41103.49070194036,4043,0.06299785582720317,0.06293173216448207,3999.568483997296
95,237.576633125,1097,41801,0.8658853313998153,2.1272733181009613e-05,1092.8700763323989,41052.97030510239,4042,0.06264819921807331,0.06291218798605294,3995.145371356013
96,238.11206719999998,1106,41763,0.8659634438688039,2.129924598147438e-05,1092.3243335069667,40970.38363269757,4043,0.06255588544759025,0.06288544938083146,3988.256880110458
97,238.64739592499998,1104,41717,0.8653764850454776,2.1307869033203104e-05,1091.7537430066157,40863.64291376849,4039,0.0625385956124511,0.06284894461158791,3978.9778703933644
98,239.1826193,1097,41579,0.865240351462597,2.137345861031068e-05,1091.305216426172,40746.889963531794,4024,0.06256011335237936,0.06279464393127053,3968.457201748548
99,239.71773732499997,1102,41352,0.8654717432609225,2.1502403559277577e-05,1091.0639878592738,40637.46533330235,4005,0.06242147753258281,0.06272543843064898,3958.158214229012
100,240.25275,1107,40938,0.8654328986505,2.1727621667808994e-05,1090.789213798706,40527.12716029731,3974,0.06229309132160839,0.06266098323061037,3947.9107794060264
101,240.787657325,1103,40597,0.8649750843904328,2.1901430201813764e-05,1090.5270561054404,40411.52916260766,3956,0.06248478036577467,0.06260853716478586,3937.7719314139995
102,241.3224593,1097,40336,0.8650023747478218,2.204445512749616e-05,1091.0336813970662,40309.47158485958,3945,0.06278260820310906,0.06254961171271677,3928.949172121604
103,241.85715592499997,1104,40030,0.864426750181391,2.2206924682253277e-05,1091.558948107524,40214.65113592529,3913,0.062379251432449455,0.06247988814424791,3920.109266347974
104,242.3917472,1099,39820,0.8640504083213235,2.2314775143238127e-05,1092.4533511517607,40114.77299599008,3894,0.06236979652535057,0.06240038696882253,3910.7914109039098
105,242.92623312499998,1088,39723,0.8638615542876957,2.2359558801286287e-05,1093.911390971462,40021.411900608546,3883,0.06249496684959517,0.06232159336529678,3902.465808965021
106,243.46061369999998,1089,39326,0.8647030136247108,2.2614300641386898e-05,1094.9293755237734,39954.07501868595,3855,0.06255115557407616,0.06225381972131237,3895.998187954353
107,243.994888925,1082,39081,0.863747888775786,2.273080577846222e-05,1095.5869895127653,39912.5300459799,3834,0.06255517750232803,0.062175332340212525,3890.4914947110174
108,244.52905879999997,1078,39255,0.8628771528607923,2.2602015686428798e-05,1095.7612176946038,39888.20913270892,3842,0.0624719713572892,0.06209918380774284,3885.9269066116267
109,245.063123325,1089,39404,0.8633129275796555,2.2531982972195107e-05,1095.9066117012633,39883.55441799285,3854,0.06230093291811947,0.06203182450370634,3883.1400258215745
110,245.59708249999997,1100,39168,0.8623491049005171,2.2652860799109936e-05,1096.2580126389971,39908.38451606981,3833,0.061910268563967454,0.06195545173841622,3882.225667625466
111,246.130936325,1100,38870,0.862505803534046,2.2835737451258832e-05,1096.4318557611514,39977.13705859626,3826,0.06225022029213158,0.06189535191130931,3885.0876577045165
112,246.66468479999997,1095,38897,0.8631762817630669,2.2834143213667713e-05,1096.2243538924795,40094.05014836047,3823,0.06229154268688552,0.061857154468861836,3892.1540918253345
113,247.19832792499997,1095,39181,0.8629529675416884,2.2658009965385927e-05,1095.680513714899,40259.480350630045,3819,0.06172041914571127,0.06180584880851368,3901.6811026296564
114,247.7318657,1091,39767,0.8621360146885437,2.2291240425290717e-05,1095.013386486649,40470.44927404847,3837,0.061211746207848305,0.061748760814504734,3913.921221318641
115,248.265298125,1089,39991,0.8624878814902607,2.217078508791992e-05,1094.544134634965,40720.257808783106,3848,0.06116919605757106,0.06170091579891879,3929.650954721436
116,248.79862519999998,1090,39909,0.862427427307537,2.2216631734654086e-05,1094.026931527307,40999.292350901844,3841,0.06111795390203339,0.06165055489310885,3947.3136197874614
117,249.33184692499998,1084,40154,0.8621956715984717,2.2067972142269557e-05,1093.508505288887,41299.89761942434,3868,0.06143723444407845,0.061599064153745324,3966.3702235610467
118,249.8649633,1093,40697,0.8614594306460737,2.175182887198449e-05,1093.3808013771336,41640.50721420564,3933,0.06177519399643595,0.06154023813716139,3988.1843303358314
