,x_(nm),baseline_dark,baseline_light,baseline_dark_smoothed,baseline_light_smoothed,raw_signal,calibrated_signal,calibrated_signal_smoothed,raw_signal_smoothed
0,186.23,1305,1297,1293.855260536725,4487.912714900529,1283,2.75,,1279.6849243164443
1,186.775442325,1297,1296,1297.0909815304926,3387.202622600425,1280,17.0,,1281.39044429899
2,187.3207793,1299,1300,1300.2542485789668,2425.833157504275,1280,-19.0,,1283.2648086359197
3,187.86601092499998,1297,1299,1303.3426274718884,1598.871275425205,1281,-8.0,,1285.2969422860256
4,188.41113719999998,1306,1299,1306.3536839989986,901.383932176343,1281,3.5714285714285716,,1287.475770208099
5,188.956158125,1313,1299,1309.2849839500386,328.43808357081434,1280,2.357142857142857,,1289.790217360932
6,189.50107369999998,1303,1308,1312.1340931147497,-124.89931457825332,1282,-4.2,,1292.2292087033165
7,190.045883925,1311,1318,1314.8985772828728,-463.56130645773374,1300,-1.5714285714285714,,1294.781669194044
8,190.59058879999998,1327,1330,1317.576002244149,-692.4809362544993,1316,-3.6666666666666665,,1297.4365237919064
9,191.135188325,1328,1338,1320.1639337883198,-816.5912481554251,1321,-0.7,,1300.1826974556955
10,191.67968249999998,1333,1344,1322.659937705126,-840.8252863473817,1316,-1.5454545454545454,,1303.009115144203
11,192.22407132499998,1334,1343,1325.0615797843088,-770.1160950172443,1307,-3.0,,1305.9047018162205
12,192.7683548,1324,1335,1327.3664258156098,-609.3967183518871,1303,-1.9090909090909092,,1308.8583824305401
13,193.312532925,1312,1333,1329.5720415887695,-363.6002005381815,1304,-0.38095238095238093,,1311.8590819459534
14,193.8566057,1307,1338,1331.6759928935294,-37.659585762999995,1308,0.03225806451612903,,1314.8957253212523
15,194.400573125,1313,1330,1333.6758455196307,363.49208178678145,1316,0.17647058823529413,,1317.9572375152284
16,194.9444352,1323,1333,1335.5691652568144,834.9217579242904,1324,0.1,,1321.0325434866736
17,195.488191925,1335,1349,1337.3535178948216,1371.6963984626555,1335,0.0,,1324.1105681943795
18,196.0318433,1348,1364,1339.0264692233936,1968.8829592150023,1339,-0.5625,,1327.1802365971382
19,196.575389325,1344,1361,1340.5855850322714,2621.5483959944527,1334,-0.5882352941176471,,1330.2304736537412
20,197.11883,1340,1351,1342.0284311111964,3324.7596646141465,1332,-0.7272727272727273,,1333.2502043229804
21,197.662165325,1351,1351,1343.3525732499097,4073.5837208871926,1336,-inf,,1336.2283535636473
22,198.2053953,1358,1354,1344.5555772381522,4863.0875206267365,1334,6.0,,1339.1538463345341
23,198.74851992499998,1348,1346,1345.6350088656652,5688.33801964589,1322,13.0,,1342.0156075944324
24,199.2915392,1344,1343,1346.58843392219,6544.402173757786,1322,22.0,,1344.8025623021338
25,199.83445312499998,1368,1367,1347.4134181974418,7426.3469387753685,1344,24.0,-inf,1347.503635416405
26,200.3772617,1373,2483,1348.1972185100196,8198.811728464814,1337,-0.032432432432432434,-inf,1349.4508595890925
27,200.919964925,1353,7061,1348.3256245894327,8985.32879566904,1324,-0.005080588647512264,-inf,1351.028879476293
28,201.4625628,1352,12461,1347.7891911481317,9787.349135880579,1346,-0.0005401026194977045,-inf,1352.573535074381
29,202.005055325,1349,14706,1347.2334820720484,10604.425037939502,1369,0.0014973422175638242,-inf,1354.667919998162
30,202.5474425,1348,15691,1347.0642823166747,11433.136469681993,1377,0.002021892212228962,-inf,1356.8889216063526
31,203.089724325,1340,16395,1346.8579129764855,12270.753833608682,1372,0.0021255396878113583,-inf,1358.2503793970159
32,203.63190079999998,1345,17097,1345.795578608776,13117.529185258758,1385,0.0025393600812595226,-inf,1359.0829690366452
33,204.173971925,1351,17594,1344.9575075312887,13971.741149289635,1384,0.002031644400664902,-inf,1360.3857392013151
34,204.71593769999998,1352,17916,1345.0756529026448,14823.62135042668,1376,0.0014489253803429123,-inf,1362.1533217060146
35,205.257798125,1359,18182,1345.0804321728433,15664.981426532579,1376,0.0010105213101111574,-inf,1363.9752882284731
36,205.7995532,1348,18569,1344.9789576207581,16490.38793630628,1365,0.0009871668311944718,-inf,1365.3280028992467
37,206.34120292499998,1340,19153,1344.9437133343645,17303.072549774293,1365,0.0014034693762982092,-inf,1366.4007791795702
38,206.88274729999998,1340,19759,1344.3666447710903,18101.460757887715,1364,0.0013030023345458493,-inf,1367.2084078914322
39,207.424186325,1335,20057,1343.022786473054,18874.06478062887,1362,0.0014421536160666595,-inf,1367.5128768488266
40,207.96552,1324,20262,1341.2573784230417,19619.56413508762,1367,0.0022705671137395714,-inf,1367.752565176988
41,208.506748325,1318,20562,1339.7141951119813,20339.738182064888,1365,0.0024423196840573686,inf,1368.0601825635654
42,209.0478713,1330,20957,1338.546241137939,21029.136990644907,1370,0.0020380088653385643,inf,1368.2241953384864
43,209.588888925,1343,21452,1337.6761874560889,21682.575777480386,1380,0.001839972151772838,inf,1368.5019366236797
44,210.12980119999997,1351,21809,1337.4427733357238,22297.529592968836,1372,0.0010264933033532115,inf,1368.907880133159
45,210.670608125,1349,22197,1337.1605245871679,22860.639357629403,1359,0.00047966231772831924,inf,1369.397630750387
46,211.2113097,1335,22568,1336.764411424922,23370.077261092665,1352,0.0008006405124099279,inf,1369.7867222360378
47,211.751905925,1322,22740,1336.840743844682,23821.332986024143,1357,0.0016341395088243533,-1.0351006153071003,1369.9127273550666
48,212.29239679999998,1319,22994,1337.0489025798745,24204.184896599687,1363,0.002029988465974625,-1.186681827300805,1370.0729348342848
49,212.83278232499998,1321,23382,1337.109742009986,24524.855829123633,1357,0.0016318389918861338,-1.0900764945930086,1369.909488323605
50,213.37306249999997,1330,23806,1337.1578518199474,24783.98686266912,1363,0.0014682327816337426,-0.6370943256410163,1369.3402568574336
51,213.91323732499998,1326,24294,1337.5377245237462,24974.04958209651,1380,0.0023510971786833857,0.0023442064409576195,1368.6705927653816
52,214.45330679999998,1333,24914,1337.9839180955144,25132.527192008398,1387,0.0022899792205589246,0.0014511918525470944,1367.7580692654158
53,214.993270925,1352,25419,1337.311422682255,25375.412036512233,1385,0.0013711721444301325,0.0012554530422546075,1365.8232576049027
54,215.5331297,1346,25840,1336.397789304375,25748.20292645311,1361,0.0006123948722136034,0.0011647810010067463,1363.9418786382216
55,216.07288312499998,1336,26273,1336.0800471131593,26171.436159368903,1346,0.000401010546577375,0.0011339063874825036,1363.5321751341785
56,216.61253119999998,1339,26690,1336.444653333006,26607.243335069365,1363,0.0009467082166383969,0.001123605795249707,1364.1954517655859
57,217.152073925,1354,26983,1336.9539060907125,27057.05993340681,1374,0.0007803659916500839,0.0011212529922268125,1365.1812498584077
58,217.69151129999997,1351,27189,1337.6930847810565,27526.49448458576,1369,0.0006966483473953093,0.001138091716192412,1366.7761217694363
59,218.230843325,1331,27591,1338.189290810638,28014.811728464432,1364,0.0012566641279512566,0.0011575223170862449,1368.4848807447247
60,218.77006999999998,1332,28162,1338.448458628709,28516.653536885904,1363,0.0011554230339172568,0.0011656136288181603,1369.8698271761273
61,219.30919132499997,1338,28832,1339.216562096511,29024.412059162732,1370,0.0011638903033389103,0.0011496216383695681,1371.1367867901615
62,219.84820729999998,1335,29285,1339.6496862895845,29539.10965140716,1365,0.001073345259391771,0.0011317478379841083,1372.0600013590076
63,220.38711792499998,1341,29649,1339.8814922195036,30071.284785611777,1362,0.000741839762611276,0.0011220796231296906,1372.8778454777873
64,220.9259232,1352,30288,1340.0727083285885,30628.7006953719,1372,0.0006911805363560963,0.00110992459624565,1373.6475571360356
65,221.464623125,1358,30877,1340.2597340822865,31200.96280776402,1371,0.00044039432230089093,0.0010993167775892865,1374.4032707422325
66,222.0032177,1353,31261,1340.190785748236,31777.087929510817,1370,0.0005684097900227364,0.0011087245397158013,1375.1494031574632
67,222.54170692499997,1347,31690,1339.8280595256713,32353.01868671935,1378,0.0010216524404310715,0.001124540827772944,1375.6510906249027
68,223.0800908,1347,32165,1339.446148270603,32931.94239960072,1383,0.0011681484846518268,0.0011382024150895602,1376.1766970939054
69,223.61836932499997,1338,32578,1339.3039479942663,33511.51577612112,1382,0.0014084507042253522,0.0011537215748926343,1377.0445536704983
70,224.1565425,1335,33298,1339.3970871367162,34085.058076059955,1372,0.001157588461658793,0.0011503312750760612,1377.8088971437369
71,224.69461032499999,1333,33962,1339.7062900631695,34650.284196696884,1369,0.0011033130037696529,0.0011184895002960896,1378.0565358218496
72,225.23257279999999,1326,34672,1339.9320709415585,35201.76182925933,1378,0.0015594074251784322,0.0010827151578913612,1378.0048925230205
73,225.77042992499997,1328,35640,1339.8310720514364,35733.04858547124,1371,0.0012532058754954536,0.0010711027501006502,1378.1346576366132
74,226.30818169999998,1322,36280,1339.4314480508929,36236.19595007745,1363,0.0011728359745980892,0.0010792775128346582,1378.4259892636035
75,226.84582812499997,1315,36742,1338.7232100387068,36713.588371196834,1368,0.0014960340982866176,0.0010852547660708525,1378.4035425490688
76,227.3833692,1327,37318,1337.7703232236033,37160.0994360001,1389,0.0017226528854435831,0.0010987477578841046,1378.3485016647905
77,227.92080492499997,1334,37640,1336.5798772338867,37570.57704591198,1389,0.0015149011182724618,0.0011538499720618821,1379.022695870775
78,228.45813529999998,1358,37833,1336.0628100296467,37944.3223629067,1409,0.0013982179575051405,0.0011991470913269226,1380.0751998912508
79,228.99536032499998,1373,38091,1336.337674692493,38269.58424879312,1432,0.001606841331227191,0.0012076918174592944,1380.9899657976134
80,229.53248,1357,38502,1336.339056377242,38536.50909420298,1412,0.0014806838067034595,0.001207399431198311,1381.3609594781044
81,230.069494325,1336,39175,1336.004643366755,38748.43330539689,1389,0.0014006712650968577,0.0011969505913486359,1381.0863892726638
82,230.60640329999998,1322,39612,1335.7271738883976,38897.58191578443,1375,0.0013841734134238705,0.0012001576876115563,1381.1442614781497
83,231.143206925,1316,39886,1335.937189970302,38969.02622935892,1368,0.0013481980814104226,0.0012067546627142355,1381.650252553825
84,231.67990519999998,1329,39956,1335.9471335703838,38959.79295114197,1364,0.0009061019494136226,0.0011959570524252108,1381.4669641441217
85,232.216498125,1340,39947,1335.116423928036,38878.95179958701,1367,0.0006993550392415883,0.0011899653971383425,1380.5497972773749
86,232.75298569999998,1333,40036,1334.3807107748507,38730.77893043935,1371,0.0009818360333824251,0.001174446687327108,1379.4540759699842
87,233.289367925,1336,40125,1333.996828920222,38514.688396112426,1371,0.0009023176673799273,0.0011793286660148235,1379.0507146254465
88,233.8256448,1336,39978,1333.643366780649,38221.542073432414,1373,0.0009575073753946483,0.0012013181114048225,1378.9004733968795
89,234.36181632499998,1338,39484,1333.3769960814257,37846.48687399415,1372,0.0008913123263251718,0.00122067474777927,1378.5779292848952
90,234.89788249999998,1333,38862,1333.3248318194949,37406.18310720443,1368,0.0009326121132990487,0.0012404877073480141,1378.3458968492794
91,235.433843325,1328,38309,1333.3642891118454,36907.26265600509,1371,0.0011627592547524405,0.0012699726473794038,1378.2207977530372
92,235.9696988,1327,37795,1333.4539853677063,36341.02679562321,1376,0.0013436437424591422,0.0013087086144060425,1378.2367890552184
93,236.505448925,1336,37084,1333.414414822507,35708.94525357244,1380,0.0012308380888441312,0.001333753131484178,1377.82543205959
94,237.04109369999998,1341,36377,1332.909148565061,35019.517656118376,1380,0.0011131407694942345,0.0013721900577036042,1377.1841717818938
95,237.576633125,1344,35580,1332.0811796416424,34273.03241296453,1377,0.0009638976515948125,0.0014283727293174196,1376.604475752539
96,238.11206719999998,1338,34694,1331.4611882488591,33479.694670320314,1381,0.0012891233960906584,0.0014755115821084908,1375.898230990483
97,238.64739592499998,1327,33777,1331.1647149425553,32653.04208475781,1382,0.001694915254237288,0.0015141273027287122,1375.2393485695902
98,239.1826193,1321,32646,1330.9050714625218,31810.18786382416,1378,0.001819632881085395,0.001563314903346734,1374.9720491970106
99,239.71773732499997,1322,31621,1330.9387981607483,30970.10822442125,1376,0.0017822370375259909,0.001585370987411416,1374.2056898230726
100,240.25275,1329,30429,1330.4019117080543,30130.01596865103,1378,0.001683848797250859,0.0016133193566186328,1373.0054361366927
101,240.787657325,1344,29239,1329.5276676708165,29294.027656344995,1383,0.0013981000179243593,0.0016623593220318421,1372.1565154363368
102,241.3224593,1348,28108,1329.1910575550721,28477.381843302817,1375,0.001008968609865471,0.0017173263828948043,1372.111916464673
103,241.85715592499997,1331,26992,1329.0340211556068,27686.382228362516,1370,0.0015198160632866997,0.001768194252657328,1372.1550657998787
104,242.3917472,1322,26052,1329.5639085822756,26917.585494574672,1374,0.0021027092600080875,0.001809336647117444,1372.5925842034665
105,242.92623312499998,1325,25280,1330.592470950619,26186.636843416112,1367,0.0017532874139010645,0.0018574092116432092,1373.8515028652707
106,243.46061369999998,1325,24326,1331.6066275566575,25517.29418559828,1368,0.001869483935481066,0.0018981964013660162,1374.9393870755584
107,243.994888925,1324,23548,1331.9821966522202,24919.18491925024,1368,0.0019798416126709864,0.0019350771753575636,1375.3548891254352
108,244.52905879999997,1322,23128,1331.7056331966496,24388.670638066076,1360,0.0017426396404659269,0.0019776327478131725,1375.4500894697237
109,245.063123325,1327,22719,1331.2332782169215,23936.09803166504,1376,0.0022905759162303663,0.002021245699560849,1375.530589594302
110,245.59708249999997,1336,22202,1330.9451403202534,23574.6222564493,1396,0.0028754912297517493,0.0020438328659925778,1375.1159256155029
111,246.130936325,1333,21751,1330.8523635869187,23320.76644997577,1403,0.003428347536487413,0.0020549975745986554,1374.6481687014166
112,246.66468479999997,1326,21523,1330.815760266345,23182.597725882366,1388,0.003069762836064762,0.0020654916240613916,1374.383292939791
113,247.19832792499997,1320,21532,1331.0783709710045,23165.00530023286,1373,0.0026222046309123293,0.0020647604598292234,1374.1505583365158
114,247.7318657,1321,21781,1331.0690615868734,23266.097102991695,1372,0.00249266862170088,0.002064831736487175,1373.9168044576058
115,248.265298125,1325,21939,1331.1232870506437,23481.619379826956,1376,0.002474046764334918,0.002057854736740004,1373.6883055108574
116,248.79862519999998,1331,22031,1331.330041450517,23802.37482162631,1369,0.0018357487922705314,0.0020477742690449847,1373.6885320165538
117,249.33184692499998,1328,22423,1331.449319350356,24216.468323177865,1359,0.001469542545626926,0.0020390964880024854,1373.7526331286967
118,249.8649633,1329,23058,1331.5115178146475,24739.647240027614,1379,0.0023010722996916564,0.0020321488486433393,1373.9947450678121
119,250.397974325,1349,23734,1331.429885161586,25377.013545040172,1394,0.0020102747375474648,0.0020291029337032437,1374.6412149765304
120,250.93087999999997,1357,24645,1331.366531518242,26130.15039978205,1395,0.0016317416695293713,0.002020878810178738,1375.4407800855927
121,251.46368032499998,1352,25901,1331.809599311397,26988.44562730701,1392,0.0016293942726791316,0.0020005843928423547,1376.5415977711575
122,251.99637529999998,1342,27072,1332.1619289224868,27927.965367278455,1388,0.0017877963466770307,0.00199190914027807,1378.2077736754813
123,252.52896492499997,1334,28113,1332.280074293843,28942.027067430197,1384,0.0018671346950969042,0.0019988545624754486,1380.3978346055137
124,253.06144919999997,1324,29191,1332.2489750616971,30023.293800538508,1395,0.0025478164136792623,0.002025069869309562,1383.556705701122
125,253.593828125,1335,30473,1332.326281455953,31177.155337606146,1403,0.002333722287047841,0.0020619891238594958,1387.6854062379405
126,254.1261017,1337,31850,1332.6817821467953,32391.627307526163,1397,0.001966374987710156,0.0021050197510408897,1392.787764162242
127,254.65826992499998,1328,33234,1333.2678203356559,33644.66712722761,1393,0.0020372343759794396,0.0021480839899970434,1398.562096536701
128,255.19033279999996,1327,34532,1333.6714081858904,34923.08933384608,1394,0.0020177684083722332,0.0021884206339920285,1404.5613943690414
129,255.722290325,1329,36180,1333.7160751092633,36223.16815782847,1408,0.0022667929184241485,0.0022491184794374273,1411.2090194568125
130,256.2541425,1333,37733,1333.634125348227,37539.96142607915,1417,0.002307692307692308,0.0023368743629163667,1418.9501007950078
131,256.78588932499997,1323,38976,1333.682076604201,38858.93852635319,1418,0.0025230393328552836,0.0024360206824677656,1427.8479693764025
132,257.3175308,1325,40531,1333.7122471629905,40157.50302385028,1430,0.002678161505891955,0.0025527072271700176,1437.6155065799628
133,257.849066925,1332,42407,1333.5028199958974,41420.40453917336,1437,0.002556299452221546,0.0026916493241919246,1448.1126412829008
134,258.3804977,1330,44174,1333.317651588912,42652.34567034279,1439,0.0025441135281486322,0.002840648281944493,1459.3468934743432
135,258.91182312499996,1335,45605,1333.5100455276197,43855.45371356006,1461,0.002846171222046533,0.0030214035049881643,1472.2483634963135
136,259.4430432,1341,46597,1333.9454574282286,45013.27389068747,1478,0.003027222909669436,0.003251586564110824,1487.367664046722
137,259.974157925,1334,47562,1334.3142313528926,46118.722236063346,1490,0.003374578177727784,0.003527488529278907,1504.1335930598366
138,260.5051673,1327,48508,1334.35729008582,47174.119436452915,1506,0.0037939000868993876,0.003831432844632615,1522.2965865591227
139,261.03607132499997,1337,49391,1334.29500101925,48164.00944528663,1528,0.003974695134640197,0.0041533656308402325,1541.4358875625426
140,261.56687,1339,50091,1334.2085437948508,49086.60196153839,1550,0.00432802756809977,0.004499293910269651,1561.6617816937796
141,262.097563325,1330,50935,1334.1345217331962,49939.82853518671,1563,0.00469710714645701,0.0048719900074601944,1583.2124623433974
142,262.62815129999996,1327,52255,1333.840539989555,50709.09877913332,1591,0.0051837888784165885,0.00526788176949713,1606.08634397152
143,263.158633925,1326,53079,1333.323268930188,51401.52741851359,1622,0.005719475199505343,0.005681958813189806,1630.003873247381
144,263.6890112,1340,53409,1332.9864323087472,52017.04527848774,1649,0.0059344331560045325,0.006152325277163994,1656.1482253278352
145,264.219283125,1348,53463,1333.4202813200495,52539.81970146448,1685,0.00646646838722057,0.00664738368643251,1684.0356293460459
146,264.7494497,1338,53519,1334.0060250515044,52981.10410201715,1717,0.007263180084705161,0.007160804329133681,1713.0363315137047
147,265.27951092499995,1338,54052,1334.3324197603313,53362.63552968255,1751,0.007834730811549114,0.007714256631264224,1743.8690797073216
148,265.8094668,1336,54557,1334.799021495365,53676.63020679867,1788,0.00849288814565679,0.008306206535887943,1776.555573172631
149,266.33931732499997,1334,54811,1335.1953158621682,53906.30317787389,1807,0.008844923986012679,0.008936568147069968,1810.4752089514704
150,266.8690625,1329,54613,1335.1198894651943,54045.349928649666,1828,0.009364912544103295,0.009625028023054415,1845.4870551994027
151,267.398702325,1324,54201,1335.4122403678195,54109.8877664263,1854,0.010023261531478716,0.010342844043396655,1881.8427597453715
152,267.9282368,1331,54069,1335.650139300978,54115.52710140556,1897,0.010732299290833934,0.011088033910449047,1919.4458991143258
153,268.457665925,1345,54006,1335.6004439511398,54058.59491721113,1947,0.01143160973016084,0.011875205845231515,1958.2416136265454
154,268.9869897,1344,53622,1335.775374300638,53932.62737547745,1989,0.0123378859175944,0.012688353425732293,1997.7665405784576
155,269.516208125,1340,53086,1336.3495209404261,53757.070465921184,2028,0.01329571367835195,0.013531270135743787,2038.4427959862803
156,270.0453212,1338,52750,1337.1638995220474,53531.246121088916,2055,0.01394616042947172,0.014401125779677296,2079.8715712699777
