,x_(nm),baseline_dark,baseline_light,baseline_mirror,baseline_calibration,baseline_dark_smoothed,baseline_light_smoothed,raw_signal,calibrated_signal,calibrated_signal_smoothed,raw_signal_smoothed
0,186.23,1013,1009,0.3621226043733797,-0.09053065109334492,989.6763583356254,3726.4476159759342,1025,-1.086367813120139,,1203.6296043332668
1,186.775442325,1003,998,1.18800459154587,-0.237600918309174,997.5163784462338,2793.972757082205,1024,-4.989619284492654,,1139.0110153011371
2,187.3207793,999,994,1.908567993433533,-0.38171359868670657,1004.8144743077038,1978.2129786086464,1015,-6.107417578987305,,1082.8836297750836
3,187.86601092499998,1004,1002,1.7279185264672412,-0.8639592632336206,1011.5880290835894,1275.1839470895702,1011,-6.047714842635344,,1034.9481891643932
4,188.41113719999998,1005,1013,1.043047789334166,0.13038097366677076,1017.8544259374447,680.9013290592893,1021,2.086095578668332,,994.9054348783537
5,188.956158125,1010,1012,0.840365554154959,0.4201827770774795,1023.6310480328239,191.38079105211546,1025,6.302741656162192,,962.4561083262524
6,189.50107369999998,1017,1005,0.8202728553565946,-0.06835607127971621,1028.9352785332808,-197.36200039763798,1002,1.0253410691957432,,937.300950917377
7,190.045883925,1031,1017,0.837733819880384,-0.059838129991456,1033.7845006023697,-489.31137875565855,1010,1.256600729820576,,919.1407040610147
8,190.59058879999998,1050,1028,0.8116271105193998,-0.03689214138724545,1038.1960974036447,-688.4516774876338,1025,0.9223035346811361,,907.6761091664532
9,191.135188325,1056,1043,0.8262856362484797,-0.06356043355757536,1042.1874521006598,-798.7672300592521,1032,1.5254504053818088,,902.6079076429797
10,191.67968249999998,1063,1063,0.8012221689422371,inf,1045.775947856969,-824.2423699362007,1041,-inf,,903.6368408998819
11,192.22407132499998,1055,1049,0.7775424502505143,-0.1295904083750857,1048.9789678361267,-768.8614305841656,1042,1.6846753088761142,,910.4636503464473
12,192.7683548,1039,1034,0.7753865851703869,-0.1550773170340774,1051.8138952016866,-636.6087454688368,1033,0.9304639022044644,,922.789077391963
13,193.312532925,1030,1032,0.7956261498651602,0.3978130749325801,1054.2981131172032,-431.4686480558994,1022,-3.182504599460641,,940.3138634457171
14,193.8566057,1038,1038,0.7908861747409445,inf,1056.4490047462302,-157.42547181104237,1032,-inf,,962.7387499169965
15,194.400573125,1048,1047,0.7942231778648126,-0.7942231778648126,1058.283953252322,181.53644980004492,1047,0.7942231778648126,,989.7644782150888
16,194.9444352,1058,1054,0.7947581770897779,-0.19868954427244448,1059.8203417990323,581.4327833116804,1059,-0.19868954427244448,,1021.0917897492818
17,195.488191925,1076,1073,0.7914877943554887,-0.2638292647851629,1061.0755535499154,1038.2791952581733,1078,-0.5276585295703258,,1056.4214259288624
18,196.0318433,1079,1076,0.7911116722494277,-0.2637038907498092,1062.0669716685256,1548.0913521738344,1090,-2.9007427982479013,,1095.4541281631186
19,196.575389325,1061,1058,0.7900325230816138,-0.2633441743605379,1062.8119793184167,2106.8849205929755,1075,-3.6868184410475306,,1137.8906378613378
20,197.11883,1054,1057,0.798472358442206,0.26615745281406866,1063.3279596631428,2710.675567049915,1056,0.5323149056281373,,1183.4316964328068
21,197.662165325,1067,1065,0.7981102791346143,-0.39905513956730715,1063.6322958662581,3355.4789580789597,1056,4.389606535240379,,1231.778045286814
22,198.2053953,1078,1066,0.8040599544843242,-0.06700499620702702,1063.7423710913167,4037.3107602144264,1072,0.4020299772421621,,1282.6304258326466
23,198.74851992499998,1068,1049,0.8074165803696804,-0.04249560949314107,1063.6755685018727,4752.186639990623,1070,-0.08499121898628215,,1335.6895794795917
24,199.2915392,1067,1044,0.8060625325032217,-0.035046197065357464,1063.44927126148,5496.122263941861,1070,-0.10513859119607238,,1390.6562476369368
25,199.83445312499998,1095,1068,0.8122546130835153,-0.030083504188278345,1063.0808625336724,6265.13329860234,1091,0.12033401675311338,-inf,1447.231171713941
26,200.3772617,1091,2034,0.8144257223941842,0.0008636540004180108,1063.2256676255204,6948.008493963489,1166,0.06477405003135081,-inf,1497.9215610772326
27,200.919964925,1055,6014,0.8150182986479615,0.0001643513407235252,1062.72601870935,7648.114317424937,1439,0.06311091483783368,-inf,1549.1426759382703
28,201.4625628,1039,10561,0.8232603193402961,8.645876069526319e-05,1061.7967111372645,8365.586944211485,1739,0.06052113248668423,-inf,1600.816507735139
29,202.005055325,1038,12472,0.8194894939197722,7.167128685672312e-05,1061.2503114453123,9099.204511993303,1883,0.06056223739393104,-inf,1653.9486964596845
30,202.5474425,1049,13345,0.8269202298982968,6.725115727865134e-05,1060.753086140096,9846.84534191016,1959,0.06119855312357272,,1707.912319644806
31,203.089724325,1057,14004,0.8298864771900701,6.40987469830903e-05,1059.8925909986433,10606.885750526424,2004,0.06070151339298652,,1761.9834424335431
32,203.63190079999998,1065,14627,0.8293789756785952,6.115462141856623e-05,1058.850687444769,11379.816235928114,2061,0.06091000293289196,,1815.9448685134082
33,204.173971925,1063,15112,0.8303112569560028,5.9101093099580246e-05,1058.2645360030601,12164.150082674345,2109,0.06181974338216094,,1870.2529162608084
34,204.71593769999998,1055,15494,0.832804584655424,5.767744197350398e-05,1057.9840086977986,12951.893429069494,2133,0.062176282447437295,inf,1924.3372443316582
35,205.257798125,1050,15827,0.8371769300637781,5.6654052247667195e-05,1057.9418333370882,13736.992389408331,2153,0.062489419629176916,inf,1977.9674964324975
36,205.7995532,1046,16215,0.8381556767340916,5.525451095880359e-05,1058.271852137061,14515.281342725491,2177,0.06249285189440686,inf,2031.4851752021173
37,206.34120292499998,1058,16770,0.840625124319978,5.350210821792121e-05,1058.3940066592472,15286.065845205714,2208,0.06152742445060939,inf,2084.961222224699
38,206.88274729999998,1065,17411,0.8415937915656597,5.148622241316895e-05,1057.9699200434688,16046.404471222144,2234,0.0601873940009945,inf,2137.4657410133455
39,207.424186325,1043,17770,0.8431564976534377,5.040691682031671e-05,1057.1033545493467,16788.09003601408,2237,0.06018585868345815,inf,2187.437223946141
40,207.96552,1037,18054,0.844165982526256,4.960721528625821e-05,1056.3460554032733,17510.76246347562,2250,0.06017355214223121,0.12238634145958462,2235.4999207229635
41,208.506748325,1049,18427,0.8476484869242688,4.877710248154384e-05,1055.692427914542,18216.44200321603,2271,0.05960561923244657,0.15802275019622603,2282.5131713062146
42,209.0478713,1068,18844,0.8491768105118729,4.7770972688561706e-05,1055.0017440938439,18901.77215791941,2311,0.0593793190518822,0.16631731063469626,2328.0832861446015
43,209.588888925,1070,19383,0.8502736512177026,4.643005794887253e-05,1054.598382749306,19561.015243833004,2365,0.06012692504378993,0.16300343219561286,2372.2165394459216
44,210.12980119999997,1048,19828,0.8513731200582484,4.533403195198341e-05,1054.5729461595758,20190.1889737023,2386,0.0606569347517538,0.0797877508261022,2414.849645518539
45,210.670608125,1042,20285,0.8534308197221572,4.4350195900959165e-05,1054.6227774128317,20778.145756415375,2406,0.0604936672089083,-0.046271802217907956,2454.621667534891
46,211.2113097,1041,20675,0.8557212941711507,4.358364541973876e-05,1054.7737208090582,21321.557113410992,2435,0.06075560171511583,-0.058337074833118716,2490.6862669595666
47,211.751905925,1044,20876,0.8575135521308375,4.323888423410839e-05,1055.2768352623866,21817.698475616246,2461,0.061269498959731584,0.05633178176403696,2522.6777956465125
48,212.29239679999998,1059,21207,0.8580327959771828,4.2586499701071214e-05,1055.9852771296994,22257.23529411722,2492,0.061026454071635046,0.06673276790699019,2550.836734693829
49,212.83278232499998,1068,21661,0.8587529108532552,4.1701204819756966e-05,1056.5068744478722,22643.85696165215,2510,0.060133137350089544,0.0633603691023909,2574.5933090216727
50,213.37306249999997,1064,22160,0.8598387128136875,4.075837660284829e-05,1056.8851616117943,22977.885886429598,2528,0.0596702633465699,0.05851083936374522,2594.1841264807313
51,213.91323732499998,1065,22727,0.8611437003932625,3.975365619025309e-05,1057.7429386848876,23251.284309949948,2555,0.059232947723477106,0.06000337300156831,2609.8229857980423
52,214.45330679999998,1072,23321,0.8624756676121401,3.876469358677424e-05,1058.7961901741623,23496.959817888965,2608,0.05954256934928523,0.06004283542026611,2624.0670003850087
53,214.993270925,1077,23855,0.8630074298534857,3.7887761430041514e-05,1058.4054904980658,23817.457790662975,2652,0.05967322425231539,0.06005010730011005,2642.8254547101355
54,215.5331297,1062,24370,0.8629495266956824,3.7023748356602125e-05,1057.1584180841946,24247.28073115992,2658,0.05908990237713699,0.05997584805256144,2667.8522050329057
55,216.07288312499998,1052,24883,0.8648478670709356,3.6290876046785095e-05,1056.700378264493,24715.551065708823,2691,0.05948074584068077,0.05991255045681764,2697.1388932931145
56,216.61253119999998,1060,25353,0.8650803831098881,3.56102738694228e-05,1057.2236743753904,25190.25176108131,2739,0.05978964982676088,0.05986110759500396,2727.6595166367915
57,217.152073925,1066,25692,0.8652291434094919,3.513478207624023e-05,1058.3089764207368,25675.781965615945,2759,0.05948318605507471,0.05978426094603425,2758.7518856598717
58,217.69151129999997,1059,25972,0.8680312398394996,3.4842501498795795e-05,1060.0780312124646,26173.384561371215,2784,0.06010331508542275,0.059714842898691764,2791.6557566422257
59,218.230843325,1065,26402,0.868212549145114,3.4266588354782097e-05,1062.3311966295748,26682.203198259922,2831,0.06051479503454518,0.059671652870915956,2826.1869351513647
60,218.77006999999998,1063,26944,0.868144571802742,3.3543702785933385e-05,1064.1376701623842,27197.517361661125,2875,0.0607811894481113,0.05964471210835029,2861.0331830845
61,219.30919132499997,1058,27549,0.8681762475955156,3.277249811617212e-05,1065.1937982740062,27712.91959047717,2904,0.060498031522453734,0.05964833694270939,2895.984620263144
62,219.84820729999998,1057,28049,0.868951283960652,3.219291953025534e-05,1065.8902353393983,28230.893225214077,2913,0.05975005864815391,0.059675927393205035,2931.6082357470727
63,220.38711792499998,1057,28534,0.8691522224557424,3.163199120922016e-05,1066.9372579220164,28760.03855126901,2931,0.05927835152607858,0.05968282048788786,2967.95601259366
64,220.9259232,1058,29211,0.8692686507714266,3.087659044405309e-05,1068.3927608779159,29307.843280707944,2991,0.059684449328354615,0.059636895596402714,3004.638904618393
65,221.464623125,1057,29818,0.8701622824311823,3.025493836901298e-05,1069.2099934313142,29866.230265690607,3047,0.06020732735433583,0.05959621555444157,3041.729053885647
66,222.0032177,1060,30241,0.86932404321908,2.979075573897673e-05,1069.412353620673,30427.279304173913,3074,0.05999858205829914,0.05957476320085082,3079.381118485071
67,222.54170692499997,1071,30633,0.8705973257298546,2.944987909241102e-05,1069.7580466148518,30986.203107657566,3104,0.05987160419487161,0.059533665267984294,3116.557430519318
68,223.0800908,1084,31090,0.8704844215444587,2.901034531575214e-05,1070.8264060340914,31544.00754263909,3134,0.059471207897291885,0.059473579252830804,3153.784389227328
69,223.61836932499997,1082,31525,0.8703398065724872,2.8589160285533202e-05,1072.3805522208677,32103.83530770737,3151,0.0591509726307682,0.05941887961403238,3191.428503476802
70,224.1565425,1066,32189,0.8697053263836744,2.7944135410586202e-05,1073.544021382117,32663.790414278297,3175,0.0589341815809263,0.05938004442400746,3229.0776008515995
71,224.69461032499999,1055,32874,0.8700422735223692,2.7343482621149915e-05,1074.1227434369769,33222.43944370137,3210,0.058925205048578067,0.05934958807720456,3266.5965254025514
72,225.23257279999999,1055,33550,0.8700397124616915,2.6774571856029898e-05,1074.1120523680963,33775.114906339244,3267,0.059225352945538136,0.0593524278182264,3304.4169516862717
73,225.77042992499997,1061,34440,0.8700678242154535,2.6066323862771607e-05,1073.7221454619378,34315.45500464271,3328,0.05909235619690323,0.05938789003815896,3342.0836712042665
74,226.30818169999998,1060,35079,0.8699872642519537,2.557356960086874e-05,1073.7579107114339,34843.894108586166,3386,0.059484122891620694,0.05941209985827513,3378.935921538362
75,226.84582812499997,1066,35566,0.8700242014773532,2.521809279644502e-05,1073.7199030555412,35366.51722575755,3430,0.059615571370796025,0.059422578695811426,3415.27556683044
76,227.3833692,1085,36201,0.8696880407569096,2.476614764656879e-05,1073.3004598065436,35881.21610908445,3481,0.059339689761178815,0.05943434829109824,3451.0802056671064
77,227.92080492499997,1086,36591,0.87010037851645,2.450641820916631e-05,1073.0964234750297,36383.3901787123,3497,0.059084974302299975,0.0594348030219123,3486.0608394300452
78,228.45813529999998,1109,36799,0.8693067287349536,2.435715126744056e-05,1073.2542299938639,36874.02548189017,3532,0.059017377521008475,0.059441651338329106,3520.7224172687274
79,228.99536032499998,1131,37048,0.8691277262341458,2.419822719698599e-05,1073.7303449681554,37347.18906430426,3583,0.05933405308700965,0.059451809801154915,3554.6196969353105
80,229.53248,1110,37565,0.86926662631248,2.3844921857426414e-05,1073.914697954633,37795.6578857951,3580,0.058896956987843245,0.059447046772705,3586.3202111032406
81,230.069494325,1091,38334,0.8686441253792921,2.3323688354302612e-05,1073.803846066708,38226.80062968511,3624,0.05907890260144852,0.05945061807348026,3616.839226256471
82,230.60640329999998,1082,38821,0.868302707705708,2.3008100577803018e-05,1073.9076083263285,38633.674601915496,3667,0.0594759399936208,0.0594631060952042,3646.1350200456845
83,231.143206925,1068,39255,0.8687016218294412,2.2748621830189364e-05,1073.9806790640578,38998.7060182556,3683,0.05948764608594519,0.059474226505550315,3672.623366327592
84,231.67990519999998,1048,39573,0.8683284847277679,2.2539350674309356e-05,1073.4292282950712,39320.13893859355,3697,0.059706739936245486,0.05950303047033717,3695.982830868125
85,232.216498125,1051,39909,0.8683608504247778,2.234702893676406e-05,1073.3530997304376,39612.34166119202,3731,0.059890037550527686,0.05953419908677272,3717.6304559558957
86,232.75298569999998,1068,40374,0.868249886800152,2.2089499994915586e-05,1073.3388525221205,39878.58597023638,3767,0.059619560486277166,0.059567286435205105,3737.5598541302593
87,233.289367925,1074,40777,0.867778574191436,2.1856750728948342e-05,1073.1182359736142,40111.91682710743,3785,0.059253651226178955,0.05960531772532798,3755.416498674869
88,233.8256448,1073,41023,0.8676471171202086,2.171832583529934e-05,1073.0330018799766,40303.20738861504,3805,0.0593344661820378,0.05963465568770437,3770.348026002782
89,234.36181632499998,1066,41060,0.8677489292852631,2.16969777787984e-05,1073.0872726448865,40444.85548936478,3831,0.05999214355837757,0.05965738362712532,3781.8304831365786
90,234.89788249999998,1063,41003,0.8672589311593729,2.1714044345502577e-05,1073.0741126639127,40558.18534961076,3824,0.05995247643793262,0.05968969376037206,3791.648734965611
91,235.433843325,1073,41020,0.8668004592010585,2.1698762340127133e-05,1072.7628711861898,40652.17977757063,3809,0.05936781376258784,0.05973656044105351,3800.274796711064
92,235.9696988,1077,41195,0.8665578153052318,2.160022471970766e-05,1072.5921764932182,40710.74472807914,3829,0.05944381842863548,0.059781770283108236,3806.6189268159364
93,236.505448925,1071,41311,0.8666098942893835,2.1536031170213307e-05,1072.4528528392284,40728.64757978585,3848,0.05980555855968235,0.05981938043731715,3809.734693877478
94,237.04109369999998,1056,41382,0.8664654382940954,2.1486520812728648e-05,1072.1636730163557,40712.8780946333,3870,0.06046306956701841,0.05984797683972859,3810.1381231737255
95,237.576633125,1042,41355,0.8658853313998153,2.1479059643286663e-05,1071.9034179709415,40657.882352940396,3871,0.06076425973085797,0.059873370736818136,3807.8795895716044
96,238.11206719999998,1047,41304,0.8659634438688039,2.151087870106575e-05,1071.1592561552718,40567.263335522104,3868,0.06068218881570648,0.059895729788628484,3802.7112505378786
97,238.64739592499998,1058,41256,0.8653764850454776,2.1527849272239355e-05,1070.1736845681464,40455.16881469491,3851,0.060127283017364516,0.059919367993546316,3795.777027792176
98,239.1826193,1068,41116,0.865240351462597,2.1605082687340116e-05,1069.1363564293438,40333.12120319749,3838,0.059846079043932125,0.059952916116757564,3788.59328637108
99,239.71773732499997,1065,40959,0.8654717432609225,2.1694283432619503e-05,1068.2889080160162,40218.26770708206,3847,0.06035349650954746,0.05997308560844266,3781.6107499602886
100,240.25275,1076,40593,0.8654328986505,2.1900268204835894e-05,1067.556433894292,40104.97635280451,3826,0.06022573756329871,0.059993098867060224,3774.6576366394893
101,240.787657325,1087,40219,0.8649750843904328,2.2104034661924583e-05,1066.9302135948515,39987.71874787575,3794,0.05983562182982985,0.06002116110117313,3767.843258057868
102,241.3224593,1083,39974,0.8650023747478218,2.2241710800643384e-05,1066.891322566742,39882.5071236034,3770,0.05976347692132877,0.060049122645409805,3762.4616412602054
103,241.85715592499997,1080,39648,0.864426750181391,2.241305616525075e-05,1067.3361571043308,39781.80778726509,3749,0.05982044690505425,0.06006258479057622,3757.1612041042113
104,242.3917472,1077,39391,0.8640504083213235,2.2551819395555762e-05,1068.3441301048515,39677.29146752964,3731,0.05985252867580499,0.060059969566861035,3751.429318897299
105,242.92623312499998,1073,39310,0.8638615542876957,2.2592294225166613e-05,1070.087385897735,39578.47126775162,3717,0.05973402593134053,0.06006786205188563,3747.340370110236
106,243.46061369999998,1071,38917,0.8647030136247108,2.284793673372908e-05,1071.7419420598221,39503.20365127107,3687,0.05977020249543528,0.06005854005126297,3744.026999478965
107,243.994888925,1069,38639,0.863747888775786,2.2990361692195527e-05,1073.0188905750774,39453.57937892062,3669,0.05977494039970837,0.06004549643614465,3741.9142449431884
108,244.52905879999997,1075,38790,0.8628771528607923,2.2878885134848e-05,1073.9369861151802,39418.58814469108,3675,0.059485101350604794,0.060045502766328716,3741.207977530563
109,245.063123325,1090,38930,0.8633129275796555,2.2814823667538463e-05,1074.417042288593,39405.42091553527,3697,0.05947824530127278,0.060048770734484135,3741.7982740265197
110,245.59708249999997,1081,38694,0.8623491049005171,2.2926889769508337e-05,1074.1324831819313,39425.22206618421,3695,0.05993088985749479,0.060055380333474954,3744.0902398694616
111,246.130936325,1077,38409,0.862505803534046,2.3103659153917445e-05,1073.668622165827,39492.5915649271,3692,0.06041606868749412,0.06005763614040422,3749.1715327639777
112,246.66468479999997,1078,38420,0.8631762817630669,2.311542718020103e-05,1073.5431380099003,39610.48907109938,3686,0.06028503408596429,0.06004387240713886,3757.21287005361
113,247.19832792499997,1070,38687,0.8629529675416884,2.2940504759595087e-05,1073.221998233235,39778.895762077664,3686,0.06001236045110075,0.06002814305057846,3768.6857686470084
114,247.7318657,1061,39297,0.8621360146885437,2.2547756425581747e-05,1072.618655009153,39994.919930235475,3712,0.059774102284217215,0.06001673092079579,3783.454008018229
115,248.265298125,1059,39486,0.8624878814902607,2.2444840385412878e-05,1072.3221590522796,40250.756642278786,3725,0.059837944467510736,0.06001407599622446,3801.5642709913427
116,248.79862519999998,1063,39353,0.862427427307537,2.2523568224276233e-05,1072.3641079072934,40535.64914267516,3725,0.05995773861302333,0.060000255724240906,3821.39160569881
117,249.33184692499998,1056,39622,0.8621956715984717,2.235636756724762e-05,1072.6883055108628,40840.47464268647,3737,0.059937421447790865,0.05995321031246671,3841.2824526036093
118,249.8649633,1062,40120,0.8614594306460737,2.2055902264480355e-05,1073.1274321048968,41182.763278895676,3791,0.06019055727976689,0.059902042940839756,3863.655280980243
119,250.397974325,1081,40547,0.861591555373828,2.1831235883388944e-05,1073.3299055471039,41570.2842419979,3838,0.06018871733050332,0.05985987631287091,3889.266529253136
