,x_(nm),baseline_dark,baseline_light,baseline_mirror,baseline_calibration,baseline_dark_smoothed,baseline_light_smoothed,raw_signal,calibrated_signal,calibrated_signal_smoothed,raw_signal_smoothed
0,186.23,1028,1006,0.3621226043733797,-0.016460118380608166,994.9334326215563,3746.6117703975783,1010,0.296282130850947,,1247.8093286661542
1,186.775442325,1019,1019,1.18800459154587,inf,1004.2671036613318,2808.6276331142158,1007,-inf,,1164.1022169099858
2,187.3207793,1013,1021,1.908567993433533,0.2385709991791916,1012.9015801127737,1988.116260611657,1007,-1.4314259950751498,,1091.4688989674241
3,187.86601092499998,1014,1008,1.7279185264672412,-0.28798642107787353,1020.8606382530432,1281.0632521223379,1008,1.7279185264672412,,1029.5126943084922
4,188.41113719999998,1017,1007,1.043047789334166,-0.10430477893341661,1028.168054359302,683.4542068786945,1003,1.4602669050678325,,977.8369224032133
5,188.956158125,1022,1003,0.840365554154959,-0.04422976600815574,1034.8476047087113,191.2747241131633,990,1.4153525122609836,,936.0449027216105
6,189.50107369999998,1025,1006,0.8202728553565946,-0.04317225554508392,1040.9230655784327,-199.48959694182076,990,1.5110289440779372,,903.739954733707
7,190.045883925,1039,1028,0.837733819880384,-0.07615761998912582,1046.4182132456272,-492.85315705382027,1010,2.208570979684649,,880.525397909526
8,190.59058879999998,1046,1034,0.8116271105193998,-0.06763559254328332,1051.3568239874567,-692.8303569903997,1028,1.2174406657790997,,866.0045517190904
9,191.135188325,1048,1040,0.8262856362484797,-0.10328570453105997,1055.7626740810824,-803.4355975191224,1039,0.9295713407795397,,859.7807356324233
10,191.67968249999998,1059,1056,0.8012221689422371,-0.26707405631407904,1059.6595398036654,-828.6832794075531,1040,5.074407069967502,,861.4572691195483
11,192.22407132499998,1053,1047,0.7775424502505143,-0.1295904083750857,1063.0711974323676,-772.5878034232569,1036,2.203036942376457,,870.6374716504879
12,192.7683548,1044,1040,0.7753865851703869,-0.19384664629259674,1066.0214232443504,-639.1635703337938,1045,-0.19384664629259674,,886.9246626952659
13,193.312532925,1049,1035,0.7956261498651602,-0.056830439276082875,1068.5339935167747,-432.4249809067319,1047,0.11366087855216575,,909.9221617239049
14,193.8566057,1057,1043,0.7908861747409445,-0.05649186962435317,1070.6326845268024,-156.38643590963375,1057,-0.0,,939.2332882064283
15,194.400573125,1072,1058,0.7942231778648126,-0.05673022699034375,1072.3412725515946,184.937663889938,1060,0.6807627238841251,,974.4613616128592
16,194.9444352,1087,1064,0.7947581770897779,-0.03455470335172948,1073.683533868313,587.5329177244171,1059,0.9675316938484254,,1015.2097014132203
17,195.488191925,1094,1071,0.7914877943554887,-0.034412512798064725,1074.6832447541185,1047.3849248262418,1069,0.8603128199516181,,1061.0816270775354
18,196.0318433,1096,1080,0.7911116722494277,-0.04944447951558923,1075.364181486173,1560.4792844278486,1069,1.3350009469209092,,1111.6804580758273
19,196.575389325,1093,1081,0.7900325230816138,-0.06583604359013448,1075.750120341638,2122.8015957616717,1065,1.8434092205237653,,1166.609513878119
20,197.11883,1088,1075,0.798472358442206,-0.06142095064940046,1075.8648375976743,2730.337458060146,1053,2.149733272729016,,1225.4721139544342
21,197.662165325,1091,1070,0.7981102791346143,-0.03800525138736258,1075.7321095314437,3379.072470555711,1059,1.2161680443956027,,1287.8715777747955
22,198.2053953,1086,1069,0.8040599544843242,-0.04729764438143084,1075.3757124201077,4064.992232480802,1082,0.18919057752572335,,1353.4112248092263
23,198.74851992499998,1069,1065,0.8074165803696804,-0.2018541450924201,1074.8194225408274,4784.082343067854,1078,-1.816687305831781,,1421.6943745277497
24,199.2915392,1073,1073,0.8060625325032217,inf,1074.0870161707644,5532.328401549303,1068,-inf,,1492.3243464003885
25,199.83445312499998,1099,1100,0.8122546130835153,0.8122546130835153,1073.2022695870594,6305.71600715746,1094,-4.061273065417577,,1564.9044598971366
26,200.3772617,1096,2052,0.8144257223941842,0.0008519097514583517,1073.3571315318375,6993.107726109179,1191,0.0809314263885434,,1629.1979433282436
27,200.919964925,1069,6049,0.8150182986479615,0.0001636582929011971,1072.8845273958434,7696.984914720459,1560,0.08035622181448777,-inf,1693.9978028947105
28,201.4625628,1053,10638,0.8232603193402961,8.589048715078729e-05,1071.7291444879636,8418.30607714768,1968,0.07858979574297037,-inf,1759.5562073885822
29,202.005055325,1057,12592,0.8194894939197722,7.104373592715841e-05,1070.992797118827,9155.070262066914,2152,0.07779289084023845,-inf,1826.3281614532254
30,202.5474425,1064,13453,0.8269202298982968,6.674632576465387e-05,1070.596344198036,9905.028992728978,2229,0.07775946951582176,-inf,1893.8014904074475
31,203.089724325,1059,14065,0.8298864771900701,6.380797148931802e-05,1069.4438832136425,10668.86325851075,2279,0.07784572521696799,-inf,1961.4422976737487
32,203.63190079999998,1057,14682,0.8293789756785952,6.087185142595194e-05,1067.7472649436927,11447.263856485772,2336,0.07785509797379253,-inf,2029.3303132573394
33,204.173971925,1051,15150,0.8303112569560028,5.889149989048889e-05,1066.7087589752678,12236.454098620348,2384,0.07850236935402169,-inf,2098.309270878123
34,204.71593769999998,1061,15543,0.832804584655424,5.750618593118519e-05,1066.2952954766606,13027.188135631362,2416,0.07792088193675593,-inf,2168.0068857731353
35,205.257798125,1075,15879,0.8371769300637781,5.655072480841517e-05,1065.904052186892,13814.318920020572,2440,0.07719173936348671,-inf,2236.80894244486
36,205.7995532,1059,16313,0.8381556767340916,5.494661575547998e-05,1065.6257899385964,14593.477994971294,2486,0.07840882068306994,-inf,2303.6341706493477
37,206.34120292499998,1061,16923,0.840625124319978,5.2996162168703696e-05,1065.3088631678881,15365.496319282134,2529,0.07779836606365703,-inf,2368.949806337583
38,206.88274729999998,1063,17543,0.8415937915656597,5.106758443966382e-05,1064.6357561892476,16129.38039366659,2557,0.07629497115285774,-inf,2433.553126911095
39,207.424186325,1052,17893,0.8431564976534377,5.006570260990664e-05,1063.7971188475185,16875.779745860284,2561,0.07554914523834912,-inf,2496.318716165664
40,207.96552,1040,18166,0.844165982526256,4.929148560821301e-05,1063.0418129515754,17602.00935468493,2585,0.0761553452646891,-inf,2557.2561099911172
41,208.506748325,1038,18512,0.8476484869242688,4.8509127098790706e-05,1062.4782441278194,18310.238759654454,2630,0.0772265303412748,-inf,2615.9134521732717
42,209.0478713,1057,18909,0.8491768105118729,4.75676008577119e-05,1062.0919160116673,18997.128383428477,2673,0.07686924298606243,-inf,2671.527101406549
43,209.588888925,1068,19454,0.8502736512177026,4.624571147708597e-05,1061.7988629413826,19657.77308659275,2704,0.07565798397651265,-inf,2723.819474959743
44,210.12980119999997,1070,19916,0.8513731200582484,4.5175269025695025e-05,1061.986115200777,20288.142290878226,2733,0.07512647238973083,inf,2772.9101678406682
45,210.670608125,1065,20371,0.8534308197221572,4.42054708236899e-05,1062.5962535957576,20875.261636729763,2767,0.07523771134192021,inf,2817.9474053771905
46,211.2113097,1046,20733,0.8557212941711507,4.346631249916954e-05,1063.3472332328954,21417.022084305012,2785,0.07558791743605583,inf,2858.3549570771156
47,211.751905925,1045,20941,0.8575135521308375,4.309979654859456e-05,1064.1659607238917,21910.106140569016,2803,0.07576944233242924,inf,2894.1400484721635
48,212.29239679999998,1069,21295,0.8580327959771828,4.2422268168554476e-05,1064.538290787993,22346.293030419285,2834,0.07487530331749864,inf,2924.7325194228074
49,212.83278232499998,1081,21786,0.8587529108532552,4.1475629599287864e-05,1064.5528777548552,22730.214931255086,2848,0.07328743750194165,inf,2949.8579356270243
50,213.37306249999997,1086,22262,0.8598387128136875,4.060439709169284e-05,1065.016648168681,23062.347074678484,2870,0.07243824441158003,0.1843533496682774,2969.127885116254
51,213.91323732499998,1071,22774,0.8611437003932625,3.967855597812572e-05,1065.7231194364333,23335.40705338695,2917,0.07324661433562009,0.07379151700862584,2982.0939772134693
52,214.45330679999998,1079,23415,0.8624756676121401,3.861370288378135e-05,1066.4367709347684,23579.636979319577,2978,0.07332742177630078,0.07358249776153704,2992.413350245701
53,214.993270925,1092,23958,0.8630074298534857,3.774195005044545e-05,1065.9167591564724,23897.098711182127,3029,0.07310615724771284,0.07338083364972463,3009.0483816167407
54,215.5331297,1073,24481,0.8629495266956824,3.68655812839919e-05,1064.4901809780313,24322.919522525524,3058,0.07317817884872392,0.07314002195209474,3034.750345421129
55,216.07288312499998,1055,25014,0.8648478670709356,3.609699349183754e-05,1064.2156787242996,24788.197286461276,3088,0.07338518776890572,0.07287508830525538,3064.95719042328
56,216.61253119999998,1077,25429,0.8650803831098881,3.5523997335327204e-05,1064.825296156178,25260.860721646663,3116,0.07243343056673217,0.07261391545199157,3096.523318761407
57,217.152073925,1094,25708,0.8652291434094919,3.5151911246018193e-05,1065.6347595641826,25741.276812611344,3142,0.07199111423184526,0.07235464759078729,3128.714466918783
58,217.69151129999997,1083,26003,0.8680312398394996,3.483271427927366e-05,1066.3980611112165,26232.882103784403,3148,0.07192955498670012,0.07208579780744949,3161.325103626296
59,218.230843325,1065,26482,0.868212549145114,3.415873427804674e-05,1066.7120659584384,26735.556207388105,3153,0.0713234371725616,0.07184192427024592,3194.7030283811027
60,218.77006999999998,1061,27043,0.868144571802742,3.3413308128810024e-05,1067.3011166730637,27248.42093818608,3197,0.07137082616313821,0.07157853826675967,3228.337017825936
61,219.30919132499997,1064,27682,0.8681762475955156,3.2616133728887055e-05,1068.1235588574848,27765.018754671146,3263,0.07172287806982264,0.07128521292091893,3261.243335069814
62,219.84820729999998,1055,28175,0.868951283960652,3.204097654722168e-05,1068.4799655711136,28286.278556705158,3301,0.07196403332505989,0.07102877880635065,3294.401571949471
63,220.38711792499998,1051,28582,0.8691522224557424,3.156994742129753e-05,1068.9354911775827,28821.139550159136,3313,0.07141122106697502,0.07076323954269086,3328.343654442846
64,220.9259232,1054,29195,0.8692686507714266,3.088975696568802e-05,1069.5065799904664,29372.91345217276,3344,0.07073754345142558,0.07044786891566342,3362.35937393819
65,221.464623125,1053,29817,0.8701622824311823,3.0251782868557306e-05,1069.730843280688,29934.229812679216,3372,0.07015388447218439,0.07010728791618806,3395.901039661082
66,222.0032177,1058,30258,0.86932404321908,2.9771371343119178e-05,1069.0910326394503,30497.54284355193,3397,0.06963523757155575,0.06979291624354264,3429.2317153275744
67,222.54170692499997,1068,30664,0.8705973257298546,2.941604695667842e-05,1068.1413848558086,31058.245418921688,3432,0.0695395350055878,0.0695189602011739,3462.5896396293706
68,223.0800908,1077,31093,0.8704844215444587,2.9000680355292466e-05,1067.7709121384198,31618.108315023514,3478,0.0696306335330572,0.06923875669816029,3495.88565992428
69,223.61836932499997,1069,31515,0.8703398065724872,2.8586343249441213e-05,1067.5299327277876,32178.527780923076,3499,0.06946481409614215,0.06893452800904555,3528.7530861400487
70,224.1565425,1056,32249,0.8697053263836744,2.788142616560364e-05,1067.4289564882351,32736.77949670371,3531,0.06900652975986901,0.06862152163266039,3561.2045119934082
71,224.69461032499999,1048,32948,0.8700422735223692,2.7274052461516275e-05,1067.233391469775,33293.69938163881,3560,0.06851241978332888,0.0683117411141426,3593.1652585561833
72,225.23257279999999,1050,33652,0.8700397124616915,2.668669751738211e-05,1066.1480894244285,33844.65650411043,3593,0.0678642717867027,0.06801915978595087,3623.851140456113
73,225.77042992499997,1063,34544,0.8700678242154535,2.598691270318848e-05,1064.9512786246369,34384.309361479776,3655,0.06735807772666454,0.06772589306618902,3652.779111644588
74,226.30818169999998,1060,35167,0.8699872642519537,2.550758683707021e-05,1064.428367573424,34914.10122539515,3691,0.06711046096833173,0.06740408411240385,3680.380620172527
75,226.84582812499997,1048,35631,0.8700242014773532,2.515756879036964e-05,1064.156175677798,35440.45964800946,3719,0.0671958662390773,0.06703661797121352,3706.5146888943545
76,227.3833692,1069,36200,0.8696880407569096,2.4755573162076502e-05,1064.1339781195293,35958.177920224,3789,0.06733515900084809,0.06663882038194194,3731.07019411531
77,227.92080492499997,1074,36590,0.87010037851645,2.4498828092027534e-05,1063.4457632109243,36461.24392398399,3806,0.06693079834741922,0.06627594649497752,3754.7514099978885
78,228.45813529999998,1097,36851,0.8693067287349536,2.4313551735049327e-05,1062.9646877618768,36955.24854470019,3820,0.06620580137453931,0.06592126116609737,3777.9149018097078
79,228.99536032499998,1120,37175,0.8691277262341458,2.410560882635268e-05,1062.9998867471313,37432.63364968557,3842,0.06561546722533199,0.06557563204152202,3800.5424131916184
80,229.53248,1091,37719,0.86926662631248,2.3732298414122527e-05,1062.8088971437426,37885.182744795304,3840,0.06524008834042283,0.06524714788570055,3821.6283268023453
81,230.069494325,1070,38465,0.8686441253792921,2.3228884219261722e-05,1062.192348637548,38321.32007519915,3851,0.06459952701376685,0.06493982584241959,3841.6258805408215
82,230.60640329999998,1057,39030,0.868302707705708,2.2866318376364996e-05,1062.2351355636392,38731.9786178615,3862,0.06414002304570382,0.06461948796047348,3859.8428956487514
83,231.143206925,1053,39515,0.8687016218294412,2.258597113591184e-05,1062.7374572470294,39098.54791727937,3889,0.06405381414144598,0.0642980563915735,3875.071598450626
84,231.67990519999998,1058,39851,0.8683284847277679,2.2383638407129325e-05,1063.0291059819951,39422.91340687143,3897,0.06354714943784015,0.06397765855277214,3886.6734693876806
85,232.216498125,1055,40093,0.8683608504247778,2.2243989200901117e-05,1062.7467666311604,39718.2470044614,3904,0.06337312523336729,0.06366368399409866,3895.8396566172896
86,232.75298569999998,1060,40437,0.868249886800152,2.2049670792598522e-05,1061.8869283562278,39988.0257763475,3934,0.06337075385792815,0.06338490907964366,3903.950508505214
87,233.289367925,1059,40804,0.867778574191436,2.1833653898388123e-05,1061.361729597479,40226.36238646325,3953,0.06318659438193523,0.06312171547831098,3910.5161611813783
88,233.8256448,1055,41015,0.8676471171202086,2.171289081882404e-05,1060.8976194251081,40419.46227547545,3950,0.0628588189204956,0.06288759451539991,3914.724523771698
89,234.36181632499998,1050,41087,0.8677489292852631,2.16736750826801e-05,1060.3546852703141,40560.505696617496,3952,0.06289700508993765,0.06267199415127105,3915.7539468616887
90,234.89788249999998,1046,41057,0.8672589311593729,2.1675512513043237e-05,1060.2332555663572,40672.6349181174,3940,0.06272893321274713,0.06245105885273757,3914.9106661531787
91,235.433843325,1057,41089,0.8668004592010585,2.1652689328563613e-05,1059.8001540238533,40765.311626536626,3929,0.0621865237516347,0.06223349101450944,3912.4662619764135
92,235.9696988,1059,41254,0.8665578153052318,2.1558846008340137e-05,1058.9240752904732,40822.60266370621,3926,0.06180921150591118,0.06202768114978165,3907.594917212093
93,236.505448925,1053,41332,0.8666098942893835,2.1515178983822426e-05,1058.1077034587215,40838.75156855117,3922,0.06172704850458654,0.061849152705559955,3900.690479965496
94,237.04109369999998,1057,41450,0.8664654382940954,2.1450881051026054e-05,1057.2692246709803,40818.35355274107,3915,0.06130661804383246,0.061709067697073856,3892.6482819542166
95,237.576633125,1053,41526,0.8658853313998153,2.139414749091531e-05,1056.5549389566945,40759.53992162825,3900,0.060909137906635887,0.06159377390235034,3882.955559582249
96,238.11206719999998,1049,41495,0.8659634438688039,2.1410360576294415e-05,1055.694149357836,40667.64397834527,3887,0.06076260331552355,0.061494875372901346,3871.5490271579583
97,238.64739592499998,1056,41437,0.8653764850454776,2.1430288626965098e-05,1054.5821875919976,40553.01048721298,3879,0.06049770479392247,0.06140865399346014,3858.6980905569035
98,239.1826193,1053,41282,0.865240351462597,2.1507876195346566e-05,1053.7641396180913,40430.22349317007,3882,0.060845781756635436,0.06131411711601077,3845.236494597766
99,239.71773732499997,1050,41089,0.8654717432609225,2.1615718256223245e-05,1053.207343314664,40313.35620285773,3880,0.061172482665111785,0.0612303455193788,3833.1409091937926
100,240.25275,1053,40688,0.8654328986505,2.1835067456805855e-05,1052.4376543069857,40196.22458039743,3860,0.061291034351254034,0.061171926162971485,3821.9479489908445
101,240.787657325,1051,40323,0.8649750843904328,2.2025236412467734e-05,1051.6043851502664,40076.1043285231,3844,0.061516485300022385,0.06114253771836189,3811.665677591718
102,241.3224593,1060,40098,0.8650023747478218,2.2157958264968025e-05,1051.3807787265648,39966.72640376829,3825,0.06126675460263659,0.06114973303372033,3804.3065301591605
103,241.85715592499997,1063,39735,0.864426750181391,2.2352781086610235e-05,1051.6377041382389,39863.04052186836,3808,0.0613583840827451,0.06116804632891555,3798.2246936509728
104,242.3917472,1063,39458,0.8640504083213235,2.2504242956669448e-05,1052.562005934429,39757.21982377781,3782,0.06118903659918423,0.061187054789893565,3792.7336972524135
105,242.92623312499998,1055,39391,0.8638615542876957,2.2533951228289224e-05,1054.2925094565928,39657.745475547956,3766,0.061089541779892086,0.06120350387418593,3788.361661645718
106,243.46061369999998,1050,38992,0.8647030136247108,2.279012739509543e-05,1055.4256042039256,39582.807402205406,3731,0.061100331546250844,0.0612282243633256,3785.552945706512
107,243.994888925,1048,38700,0.863747888775786,2.2940292382231647e-05,1056.3320347006527,39532.68946068918,3713,0.06113587919864734,0.061245787643961075,3783.9947224171965
108,244.52905879999997,1052,38855,0.8628771528607923,2.2825626348723442e-05,1056.9154454234322,39500.36614645783,3735,0.061241155493624994,0.061261058336522546,3783.3700650070623
109,245.063123325,1052,38941,0.8633129275796555,2.2785318366271357e-05,1057.3558630999366,39493.03560669476,3762,0.06174821277259538,0.061299928530438,3785.5625495480485
110,245.59708249999997,1055,38729,0.8623491049005171,2.2889767608974814e-05,1057.6240231941629,39518.53235633801,3745,0.06157347486814225,0.06135284300293672,3790.795691861578
111,246.130936325,1072,38440,0.862505803534046,2.308140129346088e-05,1057.5736709778048,39589.68409250417,3716,0.061027225019910564,0.06140371609447293,3798.8098031664763
112,246.66468479999997,1066,38429,0.8631762817630669,2.310243507649458e-05,1057.5490951097217,39710.73779700483,3731,0.061567989478858054,0.061461911839810646,3810.69571224709
113,247.19832792499997,1055,38803,0.8629529675416884,2.286089243249148e-05,1057.6348275158919,39879.74871457941,3756,0.06174727046015949,0.06153339463078298,3826.912432897614
114,247.7318657,1051,39426,0.8621360146885437,2.24660850733171e-05,1057.638768715013,40090.579197716055,3790,0.061534607015815534,0.061614578522478494,3846.6342839021668
115,248.265298125,1035,39562,0.8624878814902607,2.238658295455812e-05,1057.7519309610434,40341.55111100966,3804,0.061988448201171435,0.061703935630881765,3869.709076083189
116,248.79862519999998,1039,39428,0.862427427307537,2.246548301095462e-05,1058.0396611474578,40624.7820109168,3810,0.06225185342335525,0.06179268322006846,3895.1807968469657
117,249.33184692499998,1056,39696,0.8621956715984717,2.2313552577600198e-05,1058.579152415663,40928.62492921618,3847,0.06227712524408215,0.06187030129724253,3921.9015832747436
118,249.8649633,1065,40211,0.8614594306460737,2.200632071338256e-05,1059.1209087408347,41269.85884164908,3891,0.062189862336019114,0.06194826110288335,3951.4251511924767
119,250.397974325,1080,40700,0.861591555373828,2.1746379489495914e-05,1059.1352692020002,41655.83573806802,3928,0.061933688786084365,0.06202929282047985,3983.773766110141
120,250.93087999999997,1074,41368,0.861950076569216,2.139152421127751e-05,1059.248408797461,42089.53632018765,3968,0.06190707106743712,0.06208883651515582,4018.420462524556
