,x_(nm),baseline_dark,baseline_light,baseline_mirror,baseline_calibration,baseline_dark_smoothed,baseline_light_smoothed,raw_signal,calibrated_signal,calibrated_signal_smoothed,raw_signal_smoothed
0,186.23,1404,1386,0.3621226043733797,-0.02011792246518776,1373.5090829752307,4338.300618812283,1333,1.428372495028331,,1495.7447344040006
1,186.775442325,1400,1380,1.18800459154587,-0.0594002295772935,1378.6479941565394,3325.739348808391,1328,4.2768165295651315,,1439.240646827993
2,187.3207793,1391,1382,1.908567993433533,-0.21206311038150366,1383.4144018516931,2439.75388551809,1331,12.72378662289022,,1390.1761829195464
3,187.86601092499998,1384,1385,1.7279185264672412,1.7279185264672412,1387.8211004188802,1676.0296635667692,1334,-86.39592632336206,,1348.2951704790921
4,188.41113719999998,1382,1388,1.043047789334166,0.17384129822236102,1391.880884216289,1030.2521175798192,1326,-9.735112700452218,,1313.3414373070618
5,188.956158125,1380,1385,0.840365554154959,0.1680731108309918,1395.6065476021076,498.1066821826307,1325,-9.244021095704548,,1285.0588112038872
6,189.50107369999998,1369,1382,0.8202728553565946,0.06309791195050728,1399.010884934525,75.27879200059306,1325,-2.7763081258223203,,1263.1911199699996
7,190.045883925,1388,1399,0.837733819880384,0.07615761998912582,1402.1066905717291,-242.54611834090338,1339,-3.731723379467165,,1247.482191405831
8,190.59058879999998,1398,1410,0.8116271105193998,0.06763559254328332,1404.9067588719086,-459.6826142164673,1351,-3.178872849534316,,1237.6758533118125
9,191.135188325,1399,1409,0.8262856362484797,0.08262856362484797,1407.4238841932513,-580.4452610007083,1367,-2.644114035995135,,1233.515933488376
10,191.67968249999998,1415,1408,0.8012221689422371,-0.11446030984889101,1409.6708608939462,-609.1486240682389,1373,4.807333013653422,,1234.7462597359531
11,192.22407132499998,1410,1404,0.7775424502505143,-0.1295904083750857,1411.6604833321812,-550.1072687936676,1368,5.4427971517536,,1241.110659854975
12,192.7683548,1399,1399,0.7753865851703869,inf,1413.405545866145,-407.6357605516023,1356,-inf,,1252.3529616458736
13,193.312532925,1391,1394,0.7956261498651602,0.2652087166217201,1414.9188428540258,-186.04866471665446,1352,-10.343139948247083,,1268.2169929090805
14,193.8566057,1393,1402,0.7908861747409445,0.08787624163788271,1416.213168654012,110.33945333656538,1354,-3.427173423877426,,1288.446581445027
15,194.400573125,1413,1422,0.7942231778648126,0.08824701976275695,1417.3013176242919,477.2140282334508,1349,-5.647809264816445,,1312.7855550541449
16,194.9444352,1429,1443,0.7947581770897779,0.05676844122069842,1418.196084123054,910.260494599389,1370,-3.349338032021207,,1340.9777415368658
17,195.488191925,1433,1455,0.7914877943554887,0.035976717925249486,1418.9102625084865,1405.1642870597707,1387,-1.6549290245614763,,1372.7669686936213
18,196.0318433,1436,1453,0.7911116722494277,0.04653598072055457,1419.456647138778,1957.6108402399855,1390,-2.1406551131455105,,1407.8970643248426
19,196.575389325,1431,1442,0.7900325230816138,0.07182113846196489,1419.8480323721164,2563.285588765424,1374,-4.093804892331999,,1446.1118562309616
20,197.11883,1430,1431,0.798472358442206,0.798472358442206,1420.0972125666908,3217.873967261479,1356,-59.08695452472324,,1487.15517221241
21,197.662165325,1436,1429,0.7981102791346143,-0.11401575416208776,1420.216982080689,3917.0614103535377,1370,7.525039774697792,,1530.770840069619
22,198.2053953,1430,1416,0.8040599544843242,-0.05743285389173745,1420.2201352722993,4656.533352666993,1383,2.69934413291166,,1576.7026876030204
23,198.74851992499998,1418,1411,0.8074165803696804,-0.1153452257670972,1420.1194664997104,5431.975228827228,1369,5.6519160625877625,,1624.6945426130458
24,199.2915392,1428,1434,0.8060625325032217,0.13434375541720361,1419.9277701211104,6239.072473459638,1369,-7.926281569615013,,1674.4902329001266
25,199.83445312499998,1452,1452,0.8122546130835153,inf,1419.6578404946613,7073.5105211894725,1389,-inf,-inf,1725.8335862646616
26,200.3772617,1445,2499,0.8144257223941842,0.0007726999263701937,1420.1534576094316,7816.982468458934,1464,0.01468129860103368,-inf,1771.722236064203
27,200.919964925,1419,6780,0.8150182986479615,0.00015202728943256136,1420.6612833812499,8577.392239914669,1740,0.048800759907852195,-inf,1817.9750164216284
28,201.4625628,1410,11774,0.8232603193402961,7.943461205521962e-05,1420.9986636163626,9357.254524451111,2026,0.048931721026015285,-inf,1865.0249156265918
29,202.005055325,1419,13827,0.8194894939197722,6.60452525725155e-05,1421.3871435366327,10156.80488799274,2150,0.04827907963050883,-inf,1913.2212054632807
30,202.5474425,1420,14735,0.8269202298982968,6.210441080723221e-05,1421.4937824186009,10970.833473011638,2209,0.04900038012690622,-inf,1962.169494212742
31,203.089724325,1417,15425,0.8298864771900701,5.92437519410387e-05,1421.1190966952547,11797.682733470523,2248,0.04923155786300316,-inf,2011.563568823717
32,203.63190079999998,1414,16127,0.8293789756785952,5.637048703042175e-05,1420.2895195813906,12639.16935830912,2291,0.04943691712567987,,2061.449568506608
33,204.173971925,1417,16671,0.8303112569560028,5.443236245942066e-05,1419.8053410042987,13492.93793743887,2324,0.04937015275069454,,2112.3909261817525
34,204.71593769999998,1411,17063,0.832804584655424,5.32075507702162e-05,1419.1845568415772,14347.746766630906,2356,0.05028113547785431,,2164.367165734177
35,205.257798125,1412,17408,0.8371769300637781,5.233664228955852e-05,1418.435955514254,15198.370087657413,2376,0.05045252316713442,,2217.3333484336704
36,205.7995532,1410,17869,0.8381556767340916,5.092385179744162e-05,1418.1465944868241,16040.590500350776,2390,0.04990537476149279,,2269.5503635416
37,206.34120292499998,1402,18543,0.840625124319978,4.904177844466356e-05,1417.8360098756214,16874.45989716609,2412,0.0495321962291102,,2321.141158350088
38,206.88274729999998,1400,19206,0.8415937915656597,4.726461819418509e-05,1417.3118077419376,17700.970690162518,2432,0.048777085976399015,-inf,2371.93467575705
39,207.424186325,1400,19573,0.8431564976534377,4.6396109484038834e-05,1416.5191963577613,18509.413440847682,2450,0.04871591495824078,-inf,2421.1256880110072
40,207.96552,1397,19930,0.844165982526256,4.554934346982442e-05,1415.5781104894515,19294.60474755903,2483,0.04946658700822932,-inf,2469.6358014903603
41,208.506748325,1403,20338,0.8476484869242688,4.476622587400416e-05,1415.1142494733467,20063.399216289905,2512,0.04964574449427061,-inf,2516.77034587415
42,209.0478713,1417,20749,0.8491768105118729,4.3925967851845276e-05,1415.222632449179,20810.713696799077,2558,0.05011952931895546,-inf,2562.522299485783
43,209.588888925,1422,21299,0.8502736512177026,4.2776759632625775e-05,1415.5372488617818,21529.505062401906,2594,0.050134362289437406,-inf,2607.1879997281435
44,210.12980119999997,1419,21792,0.8513731200582484,4.178928582232604e-05,1415.8588189992706,22216.61559718184,2600,0.04935314655616706,-inf,2650.426917936935
45,210.670608125,1418,22337,0.8534308197221572,4.079692240174756e-05,1416.1147930870188,22858.16951686291,2628,0.049364276106114546,inf,2690.8194749597437
46,211.2113097,1415,22783,0.8557212941711507,4.004685951755666e-05,1416.625042469791,23449.606355749394,2660,0.049858340099358044,inf,2727.988720016256
47,211.751905925,1418,22980,0.8575135521308375,3.976966664181604e-05,1417.465288001966,23989.083784456714,2693,0.05070632496831545,inf,2762.8729756052835
48,212.29239679999998,1429,23326,0.8580327959771828,3.918494752601648e-05,1418.4539853677047,24466.605902737985,2735,0.05117554146897752,inf,2794.4559106660995
49,212.83278232499998,1432,23860,0.8587529108532552,3.8289321867899736e-05,1419.2821354956807,24886.453464404152,2765,0.05103966604991035,inf,2822.3063036534827
50,213.37306249999997,1436,24374,0.8598387128136875,3.748533929783275e-05,1420.2523726471452,25249.45382681326,2789,0.05071766406996771,inf,2847.121814763587
51,213.91323732499998,1433,24918,0.8611437003932625,3.666781777275974e-05,1421.4406215316042,25547.276880563055,2820,0.050858263250817756,0.05244404852080034,2868.1706720423467
52,214.45330679999998,1430,25629,0.8624756676121401,3.564096316426878e-05,1422.5500690842102,25813.59983238529,2879,0.05164375562502546,0.0517273314211525,2887.8795895716225
53,214.993270925,1426,26202,0.8630074298534857,3.483239545743807e-05,1422.4080047112914,26158.630365353187,2930,0.05238792276798686,0.051931875373790806,2913.1517135155386
54,215.5331297,1413,26681,0.8629495266956824,3.415187298938113e-05,1421.6694149357581,26622.647715689534,2966,0.05303785875250889,0.052146192374683605,2945.4804412330404
55,216.07288312499998,1414,27245,0.8648478670709356,3.3481006042001304e-05,1421.8575958685087,27127.137647511317,2998,0.05303391357053006,0.05234312065058008,2981.396905932127
56,216.61253119999998,1422,27767,0.8650803831098881,3.283660592559833e-05,1422.6076468322908,27636.78925909934,3041,0.0531624649935437,0.05255943744934777,3018.5400348818193
57,217.152073925,1419,28109,0.8652291434094919,3.241772736641034e-05,1423.3869170309363,28153.138281727253,3078,0.05378100970087475,0.05278444777314045,3056.5743957959958
58,217.69151129999997,1419,28410,0.8680312398394996,3.216002518763661e-05,1424.0250741805883,28681.085573851637,3104,0.05418964244116768,0.05301253573480608,3095.5807832566393
59,218.230843325,1430,28965,0.868212549145114,3.1531234761035556e-05,1424.5740107363426,29222.36913633322,3122,0.05335084921567216,0.053242471895735055,3135.8355568641955
60,218.77006999999998,1434,29590,0.868144571802742,3.0833377319318864e-05,1425.088246619375,29772.005436136147,3138,0.05254007495211934,0.05348580108923648,3176.7466986794107
61,219.30919132499997,1435,30269,0.8681762475955156,3.010946270359699e-05,1425.9183899974812,30322.893293165736,3199,0.05311309220914509,0.053719261212203495,3217.5595143717246
62,219.84820729999998,1432,30844,0.868951283960652,2.9544107301803755e-05,1426.9870891752653,30874.925570227497,3241,0.05344529010896299,0.05392894012857861,3258.2417721805077
63,220.38711792499998,1427,31254,0.8691522224557424,2.913978014737461e-05,1427.421889510494,31437.550046433065,3273,0.053792034152053525,0.054133702768594714,3299.3962264150314
64,220.9259232,1424,31900,0.8692686507714266,2.8523055872536637e-05,1427.387460644608,32018.43004371498,3333,0.05445051366067244,0.05430310485091923,3340.659312781653
65,221.464623125,1426,32636,0.8701622824311823,2.7880880564920934e-05,1427.5694126707015,32607.520419487926,3361,0.05394950389312201,0.05444399500494287,3381.839067702488
66,222.0032177,1427,33025,0.86932404321908,2.751199579780619e-05,1427.4996942172822,33198.84001902584,3396,0.05417111972588039,0.054602178312161756,3423.724501121137
67,222.54170692499997,1424,33426,0.8705973257298546,2.7204466149923585e-05,1427.0919160116605,33788.488527485824,3452,0.05517065735204503,0.05476822711360268,3465.860948152779
68,223.0800908,1423,33900,0.8704844215444587,2.6803104398326776e-05,1427.0457768012589,34375.71847606902,3491,0.05542881989573977,0.05493368405271212,3508.2674352759304
69,223.61836932499997,1429,34305,0.8703398065724872,2.6473409373782918e-05,1427.4047883303992,34962.559854129664,3520,0.055355899000580085,0.05508089345977031,3550.5555958231666
70,224.1565425,1430,35028,0.8697053263836744,2.588562790593709e-05,1427.393145937593,35548.235158213545,3568,0.0553434724628935,0.05519524822459993,3591.8813110149026
71,224.69461032499999,1423,35791,0.8700422735223692,2.5315475835730014e-05,1426.8812657138055,36134.131848965306,3616,0.05551683850775592,0.055302024343152074,3632.9461369452742
72,225.23257279999999,1420,36505,0.8700397124616915,2.4798053654316418e-05,1426.250288794736,36713.634057395844,3655,0.05542364991739719,0.05540365231534465,3673.35296382697
73,225.77042992499997,1410,37437,0.8700678242154535,2.4150437844268286e-05,1425.7279213571946,37278.98946748439,3723,0.05585996273379255,0.05550548725014171,3712.8595664680256
74,226.30818169999998,1401,38111,0.8699872642519537,2.3698917577007728e-05,1425.6042945479805,37832.89999773421,3772,0.05619013357508532,0.05560214686013342,3751.921991438013
75,226.84582812499997,1403,38621,0.8700242014773532,2.3376436172748487e-05,1425.854356837047,38383.420983487,3799,0.056009941069905374,0.05567341744359183,3790.3988085799633
76,227.3833692,1422,39237,0.8696880407569096,2.299849373943963e-05,1426.1017010577543,38925.37498018001,3863,0.05613932321797214,0.055722300600971886,3827.8616729710016
77,227.92080492499997,1424,39657,0.87010037851645,2.2757836908337037e-05,1426.0103513103081,39453.98260436175,3900,0.05634840418504251,0.055763584986154864,3864.1436952138606
78,228.45813529999998,1446,39877,0.8693067287349536,2.261993517563825e-05,1426.1017916600329,39974.67401300066,3926,0.056097439235582865,0.05581028016422826,3900.182631543108
79,228.99536032499998,1463,40147,0.8691277262341458,2.246736961622753e-05,1426.1762440825114,40475.71095607977,3955,0.05598868508363901,0.05586985420629639,3935.4285940790655
80,229.53248,1446,40686,0.86926662631248,2.2152564381051988e-05,1425.8185915875508,40947.39876327811,3969,0.055890919933394165,0.05593673141006303,3968.6437971414225
81,230.069494325,1431,41491,0.8686441253792921,2.1683577767830556e-05,1425.4816643638314,41402.77415116911,4007,0.055856896329931516,0.05598604169643653,4000.2447847062585
82,230.60640329999998,1428,42117,0.868302707705708,2.133998642644715e-05,1425.056513171279,41836.70667512208,4039,0.05571870455945351,0.05604355193739963,4030.8748329519717
83,231.143206925,1430,42632,0.8687016218294412,2.108396732754335e-05,1424.2268681057055,42227.818297129365,4073,0.05572492564669708,0.056126003384565304,4059.369158984271
84,231.67990519999998,1437,42928,0.8683284847277679,2.0928116572937935e-05,1423.3683209132437,42576.076060612104,4086,0.055438580801712586,0.05620619638935573,4084.7999954698075
85,232.216498125,1433,43185,0.8683608504247778,2.0798065971085884e-05,1422.8411515549342,42900.8908242534,4115,0.055780412934452336,0.05625169050491429,4107.8724093410165
86,232.75298569999998,1422,43570,0.868249886800152,2.06000257853315e-05,1422.5679177331037,43202.984846768064,4156,0.05632047049709632,0.056273253520263196,4129.234727853326
87,233.289367925,1408,44036,0.867778574191436,2.0357008871901943e-05,1422.7042515118983,43474.204240185805,4189,0.056612841672759304,0.05631241816339404,4149.842034927099
88,233.8256448,1416,44385,0.8676471171202086,2.019239724266817e-05,1422.9072232666379,43704.907608325506,4204,0.05629640351255885,0.05635384007971919,4167.9164873495765
89,234.36181632499998,1425,44435,0.8677489292852631,2.0175515677406723e-05,1422.5910892658678,43886.480962195354,4223,0.05645109286538401,0.05641320083276886,4183.060658225474
90,234.89788249999998,1412,44442,0.8672589311593729,2.0154750898428374e-05,1422.2404810980722,44043.02158599204,4240,0.056997635540755445,0.056489799804054386,4197.282316700184
91,235.433843325,1410,44531,0.8668004592010585,2.010158528793531e-05,1422.18104600328,44186.203356813574,4238,0.05684728319428106,0.05654664037632123,4210.2255317220415
92,235.9696988,1421,44716,0.8665578153052318,2.001519379386146e-05,1422.5613037667622,44293.65437495668,4240,0.056422831304895456,0.056610055271686055,4221.637001970519
93,236.505448925,1419,44854,0.8666098942893835,1.9951879688946323e-05,1422.5053795102676,44360.0508052269,4254,0.05656357891816283,0.056711805674168836,4231.369340188825
94,237.04109369999998,1407,44999,0.8664654382940954,1.9876707613646894e-05,1421.850007927672,44394.342272757305,4269,0.05688713719025741,0.0568332676997233,4239.396022559887
95,237.576633125,1413,45053,0.8658853313998153,1.984155204857505e-05,1421.324695916075,44393.26467190565,4276,0.056806363515070374,0.056955985065292966,4245.38433486594
96,238.11206719999998,1427,45039,0.8659634438688039,1.9856081901054844e-05,1420.9578699404017,44357.54023873615,4272,0.05649055300850103,0.05707684930190599,4249.131667761363
97,238.64739592499998,1427,45075,0.8653764850454776,1.9826257446973e-05,1420.4369521393191,44300.13173571231,4279,0.056544486238767,0.05720687112861692,4251.503544814071
98,239.1826193,1425,45014,0.865240351462597,1.9849970209516096e-05,1420.041586445872,44235.18328840885,4291,0.056890014620473134,0.057333878679828074,4253.477134249845
99,239.71773732499997,1422,44875,0.8654717432609225,1.991742211725134e-05,1419.3852182382116,44180.08115699025,4293,0.057182918898628594,0.05748183873625277,4257.007361435058
100,240.25275,1412,44524,0.8654328986505,2.0074060555077474e-05,1418.3480939545357,44126.727151237006,4282,0.05761255379307235,0.05765509493655298,4261.49221952924
101,240.787657325,1416,44207,0.8649750843904328,2.0213948830137944e-05,1417.4217989082154,44067.74067362709,4271,0.05771082391004383,0.05782951856142674,4265.753267344591
102,241.3224593,1426,43980,0.8650023747478218,2.0327169590351596e-05,1417.0509411311423,44020.16480554402,4265,0.05770883446700818,0.05800210882433919,4271.121882715269
103,241.85715592499997,1418,43659,0.864426750181391,2.0464163968215503e-05,1416.805137149172,43976.89324786434,4251,0.05797497652195452,0.058190526551694995,4277.673877097927
104,242.3917472,1414,43542,0.8640504083213235,2.051012173189621e-05,1417.0843054202542,43926.38997485703,4246,0.05808466474473006,0.05838366259751275,4284.672495413178
105,242.92623312499998,1413,43626,0.8638615542876957,2.0464348761938165e-05,1417.8358513216338,43876.645541234524,4268,0.05842571571533346,0.05858718037076241,4292.924120591551
106,243.46061369999998,1409,43302,0.8647030136247108,2.0640751763414193e-05,1418.2918752406351,43847.37787945282,4271,0.05907383154689142,0.05880597178446655,4303.255136016588
107,243.994888925,1417,43035,0.863747888775786,2.075419022480143e-05,1418.66395614847,43842.84894335008,4260,0.059004162809110465,0.05902545825684883,4315.261727332359
108,244.52905879999997,1427,43277,0.8628771528607923,2.061833101220531e-05,1419.126367528116,43852.498856145394,4282,0.058865335039846166,0.05924504068880604,4328.480531835293
109,245.063123325,1428,43468,0.8633129275796555,2.05355120737311e-05,1419.7138100522957,43881.39133389121,4328,0.05955298501382019,0.05947199216319286,4343.58714806669
110,245.59708249999997,1429,43218,0.8623491049005171,2.0635791832791334e-05,1420.4284128745567,43936.86735826322,4343,0.06013269740075394,0.059686458108461724,4360.1169448910805
111,246.130936325,1427,42971,0.862505803534046,2.076126043553933e-05,1420.6583161566243,44030.36447031558,4328,0.0602284165234996,0.05991485494057256,4379.727355092897
112,246.66468479999997,1416,43064,0.8631762817630669,2.0725515793389044e-05,1420.5887109560535,44164.61847380377,4322,0.06022834889558856,0.060164759434228346,4403.106933339289
113,247.19832792499997,1411,43451,0.8629529675416884,2.0526949751229505e-05,1420.2827923622006,44341.30736822946,4362,0.06057502871587827,0.06041792924481144,4429.457201748539
114,247.7318657,1424,44062,0.8621360146885437,2.0219898088290815e-05,1420.0426283720765,44559.838252281195,4413,0.06043727538590125,0.06065265680251562,4457.860902851621
115,248.265298125,1423,44168,0.8624878814902607,2.0177515065861754e-05,1420.2402772429452,44812.36838886411,4431,0.06069396531811216,0.0608710180275987,4488.140999796059
116,248.79862519999998,1415,44004,0.862427427307537,2.0250004163223766e-05,1419.920745656726,45087.798251375156,4431,0.06107401255628288,0.06109813130821346,4520.035991755106
117,249.33184692499998,1399,44285,0.8621956715984717,2.0104362066839332e-05,1419.5248363496069,45376.1466624377,4446,0.061257991217659444,0.06131054059239413,4552.130104872051
118,249.8649633,1408,44830,0.8614594306460737,1.9839238879970374e-05,1419.7522027678724,45694.30374413828,4494,0.06122389118358858,0.06148487545092279,4584.79913474815
119,250.397974325,1427,45236,0.861591555373828,1.966699891286786e-05,1419.7837323608417,46049.86373417203,4536,0.06114469962010617,0.061650087273330476,4619.374866927815
120,250.93087999999997,1431,45775,0.861950076569216,1.943780616473967e-05,1419.1741149289635,46445.46725860066,4587,0.0613457162559184,0.06181791873590519,4656.306734014271
