,x_(nm),baseline_dark,baseline_light,baseline_mirror,baseline_calibration,baseline_dark_smoothed,baseline_light_smoothed,raw_signal,calibrated_signal,calibrated_signal_smoothed,raw_signal_smoothed
0,186.23,1013,1009,0.3621226043733797,-0.09053065109334492,989.6763583356254,3726.4476159759342,1011,0.18106130218668984,,1199.2601319837725
1,186.775442325,1003,998,1.18800459154587,-0.237600918309174,997.5163784462338,2793.972757082205,1008,-1.18800459154587,,1133.471758192069
2,187.3207793,999,994,1.908567993433533,-0.38171359868670657,1004.8144743077038,1978.2129786086464,1007,-3.0537087894936525,,1076.3430475883306
3,187.86601092499998,1004,1002,1.7279185264672412,-0.8639592632336206,1011.5880290835894,1275.1839470895702,996,6.911674105868965,,1027.5697041500036
4,188.41113719999998,1005,1013,1.043047789334166,0.13038097366677076,1017.8544259374447,680.9013290592893,994,-1.4341907103344784,,986.8474318545349
5,188.956158125,1010,1012,0.840365554154959,0.4201827770774795,1023.6310480328239,191.38079105211546,1010,0.0,,953.8719346793706
6,189.50107369999998,1017,1005,0.8202728553565946,-0.06835607127971621,1028.9352785332808,-197.36200039763798,1015,0.13671214255943243,,928.3389166019574
7,190.045883925,1031,1017,0.837733819880384,-0.059838129991456,1033.7845006023697,-489.31137875565855,1024,0.418866909940192,,909.9440815997416
8,190.59058879999998,1050,1028,0.8116271105193998,-0.03689214138724545,1038.1960974036447,-688.4516774876338,1028,0.8116271105193998,,898.3831336501698
9,191.135188325,1056,1043,0.8262856362484797,-0.06356043355757536,1042.1874521006598,-798.7672300592521,1036,1.2712086711515072,,893.3517767306887
10,191.67968249999998,1063,1063,0.8012221689422371,inf,1045.775947856969,-824.2423699362007,1050,-inf,,894.5457148187444
11,192.22407132499998,1055,1049,0.7775424502505143,-0.1295904083750857,1048.9789678361267,-768.8614305841656,1041,1.8142657172511998,,901.6606518917835
12,192.7683548,1039,1034,0.7753865851703869,-0.1550773170340774,1051.8138952016866,-636.6087454688368,1024,2.326159755511161,,914.3922919272527
13,193.312532925,1030,1032,0.7956261498651602,0.3978130749325801,1054.2981131172032,-431.4686480558994,1010,-7.956261498651602,,932.4363389025981
14,193.8566057,1038,1038,0.7908861747409445,inf,1056.4490047462302,-157.42547181104237,1022,-inf,,955.4884967952664
15,194.400573125,1048,1047,0.7942231778648126,-0.7942231778648126,1058.283953252322,181.53644980004492,1044,3.1768927114592502,,983.2444695827044
16,194.9444352,1058,1054,0.7947581770897779,-0.19868954427244448,1059.8203417990323,581.4327833116804,1057,0.19868954427244448,,1015.399961242358
17,195.488191925,1076,1073,0.7914877943554887,-0.2638292647851629,1061.0755535499154,1038.2791952581733,1078,-0.5276585295703258,,1051.650675751674
18,196.0318433,1079,1076,0.7911116722494277,-0.2637038907498092,1062.0669716685256,1548.0913521738344,1088,-2.3733350167482827,,1091.692317088099
19,196.575389325,1061,1058,0.7900325230816138,-0.2633441743605379,1062.8119793184167,2106.8849205929755,1071,-2.6334417436053794,,1135.2205892290792
20,197.11883,1054,1057,0.798472358442206,0.26615745281406866,1063.3279596631428,2710.675567049915,1059,1.3307872640703433,,1181.9311961520611
21,197.662165325,1067,1065,0.7981102791346143,-0.39905513956730715,1063.6322958662581,3355.4789580789597,1068,-0.39905513956730715,,1231.5198418344914
22,198.2053953,1078,1066,0.8040599544843242,-0.06700499620702702,1063.7423710913167,4037.3107602144264,1062,1.0720799393124323,,1283.682230253817
23,198.74851992499998,1068,1049,0.8074165803696804,-0.04249560949314107,1063.6755685018727,4752.186639990623,1043,1.0623902373285268,,1338.1140653874832
24,199.2915392,1067,1044,0.8060625325032217,-0.035046197065357464,1063.44927126148,5496.122263941861,1043,0.8411087295685791,,1394.5110512129372
25,199.83445312499998,1095,1068,0.8122546130835153,-0.030083504188278345,1063.0808625336724,6265.13329860234,1067,0.8423381172717936,-inf,1452.5688917075986
26,200.3772617,1091,2034,0.8144257223941842,0.0008636540004180108,1063.2256676255204,6948.008493963489,1147,0.0483646240234086,-inf,1504.3138689437756
27,200.919964925,1055,6014,0.8150182986479615,0.0001643513407235252,1062.72601870935,7648.114317424937,1442,0.06360396886000426,-inf,1556.7679222632153
28,201.4625628,1039,10561,0.8232603193402961,8.645876069526319e-05,1061.7967111372645,8365.586944211485,1760,0.062336766461284755,-inf,1609.9038256811848
29,202.005055325,1038,12472,0.8194894939197722,7.167128685672312e-05,1061.2503114453123,9099.204511993303,1907,0.06228234827849239,-inf,1663.646809667231
30,202.5474425,1049,13345,0.8269202298982968,6.725115727865134e-05,1060.753086140096,9846.84534191016,1971,0.06200556701091653,,1717.9900337493164
31,203.089724325,1057,14004,0.8298864771900701,6.40987469830903e-05,1059.8925909986433,10606.885750526424,2022,0.06185529083868214,,1773.1882941855647
32,203.63190079999998,1065,14627,0.8293789756785952,6.115462141856623e-05,1058.850687444769,11379.816235928114,2082,0.06219424998268185,,1829.0250062288715
33,204.173971925,1063,15112,0.8303112569560028,5.9101093099580246e-05,1058.2645360030601,12164.150082674345,2134,0.06329727070965044,,1885.5691408638563
34,204.71593769999998,1055,15494,0.832804584655424,5.767744197350398e-05,1057.9840086977986,12951.893429069494,2163,0.06390660570664242,inf,1942.2371741148918
35,205.257798125,1050,15827,0.8371769300637781,5.6654052247667195e-05,1057.9418333370882,13736.992389408331,2174,0.06367915472637793,inf,1998.7431878411358
36,205.7995532,1046,16215,0.8381556767340916,5.525451095880359e-05,1058.271852137061,14515.281342725491,2196,0.06354268760262413,inf,2054.976556660361
37,206.34120292499998,1058,16770,0.840625124319978,5.350210821792121e-05,1058.3940066592472,15286.065845205714,2227,0.06254396450674989,inf,2109.8908242541897
38,206.88274729999998,1065,17411,0.8415937915656597,5.148622241316895e-05,1057.9699200434688,16046.404471222144,2263,0.061680494450976404,inf,2163.0601372624105
39,207.424186325,1043,17770,0.8431564976534377,5.040691682031671e-05,1057.1033545493467,16788.09003601408,2281,0.06240376302355209,inf,2214.050148361189
40,207.96552,1037,18054,0.844165982526256,4.960721528625821e-05,1056.3460554032733,17510.76246347562,2295,0.062405876830112825,0.069361144821423,2263.8916170241246
41,208.506748325,1049,18427,0.8476484869242688,4.877710248154384e-05,1055.692427914542,18216.44200321603,2319,0.061946920151560676,0.162570784650487,2312.9618790912145
42,209.0478713,1068,18844,0.8491768105118729,4.7770972688561706e-05,1055.0017440938439,18901.77215791941,2359,0.06167232574093316,0.17753113680144333,2361.079662053455
43,209.588888925,1070,19383,0.8502736512177026,4.643005794887253e-05,1054.598382749306,19561.015243833004,2405,0.06198412736174483,0.17006271844497114,2408.1249178916387
44,210.12980119999997,1048,19828,0.8513731200582484,4.533403195198341e-05,1054.5729461595758,20190.1889737023,2429,0.06260629812568909,0.09953141251670145,2453.2119640308483
45,210.670608125,1042,20285,0.8534308197221572,4.4350195900959165e-05,1054.6227774128317,20778.145756415375,2452,0.06253377622035242,0.006105159488922637,2494.6116559831
46,211.2113097,1041,20675,0.8557212941711507,4.358364541973876e-05,1054.7737208090582,21321.557113410992,2461,0.06188877649602904,0.024608400227858325,2532.4714489568933
47,211.751905925,1044,20876,0.8575135521308375,4.323888423410839e-05,1055.2768352623866,21817.698475616246,2484,0.06226399329711608,-0.006333936661196523,2566.909284468455
48,212.29239679999998,1059,21207,0.8580327959771828,4.2586499701071214e-05,1055.9852771296994,22257.23529411722,2526,0.06247439506147147,0.006934340183330403,2596.6395388343517
49,212.83278232499998,1068,21661,0.8587529108532552,4.1701204819756966e-05,1056.5068744478722,22643.85696165215,2549,0.06175948433806007,0.025151166268341976,2622.0990056399414
50,213.37306249999997,1064,22160,0.8598387128136875,4.075837660284829e-05,1056.8851616117943,22977.885886429598,2572,0.061463631917095224,0.04162335379598533,2643.420236018885
51,213.91323732499998,1065,22727,0.8611437003932625,3.975365619025309e-05,1057.7429386848876,23251.284309949948,2607,0.061300137845370264,0.06245577391310918,2660.1834243130706
52,214.45330679999998,1072,23321,0.8624756676121401,3.876469358677424e-05,1058.7961901741623,23496.959817888965,2654,0.06132574525427685,0.06206832376447977,2675.560714851927
53,214.993270925,1077,23855,0.8630074298534857,3.7887761430041514e-05,1058.4054904980658,23817.457790662975,2700,0.06149183680095738,0.062100150445790654,2696.267525878224
54,215.5331297,1062,24370,0.8629495266956824,3.7023748356602125e-05,1057.1584180841946,24247.28073115992,2732,0.06182965975552555,0.06209965993372631,2724.2663253980313
55,216.07288312499998,1052,24883,0.8648478670709356,3.6290876046785095e-05,1056.700378264493,24715.551065708823,2765,0.06216627066814287,0.062107435669475554,2756.5589254569227
56,216.61253119999998,1060,25353,0.8650803831098881,3.56102738694228e-05,1057.2236743753904,25190.25176108131,2802,0.06203309708053452,0.06212474853756608,2790.780968991317
57,217.152073925,1066,25692,0.8652291434094919,3.513478207624023e-05,1058.3089764207368,25675.781965615945,2830,0.06197775558248776,0.06213484819041328,2826.2166753493307
58,217.69151129999997,1059,25972,0.8680312398394996,3.4842501498795795e-05,1060.0780312124646,26173.384561371215,2852,0.06247260518734086,0.062133405957437216,2862.655235679122
59,218.230843325,1065,26402,0.868212549145114,3.4266588354782097e-05,1062.3311966295748,26682.203198259922,2881,0.06222812445228429,0.062150025143741176,2900.309474733234
60,218.77006999999998,1063,26944,0.868144571802742,3.3543702785933385e-05,1064.1376701623842,27197.517361661125,2917,0.062190024965120494,0.06220079545415273,2938.9435094792066
61,219.30919132499997,1058,27549,0.8681762475955156,3.277249811617212e-05,1065.1937982740062,27712.91959047717,2958,0.06226774642072703,0.06226900031596415,2977.60433984909
62,219.84820729999998,1057,28049,0.868951283960652,3.219291953025534e-05,1065.8902353393983,28230.893225214077,3006,0.06274400016446766,0.062355864045414336,3016.9515957325743
63,220.38711792499998,1057,28534,0.8691522224557424,3.163199120922016e-05,1066.9372579220164,28760.03855126901,3052,0.06310582246239423,0.06242472555811948,3057.3647421232063
64,220.9259232,1058,29211,0.8692686507714266,3.087659044405309e-05,1068.3927608779159,29307.843280707944,3107,0.06326613381986478,0.06245621775985969,3098.6448390676433
65,221.464623125,1057,29818,0.8701622824311823,3.025493836901298e-05,1069.2099934313142,29866.230265690607,3146,0.06320256625286812,0.06250560267895988,3140.4586740355917
66,222.0032177,1060,30241,0.86932404321908,2.979075573897673e-05,1069.412353620673,30427.279304173913,3176,0.06303723914367476,0.06255699152899882,3182.063013884738
67,222.54170692499997,1071,30633,0.8705973257298546,2.944987909241102e-05,1069.7580466148518,30986.203107657566,3195,0.06255154319228101,0.06260122460614942,3223.6769575754215
68,223.0800908,1084,31090,0.8704844215444587,2.901034531575214e-05,1070.8264060340914,31544.00754263909,3217,0.06187906655849931,0.06264091046727709,3266.048426917874
69,223.61836932499997,1082,31525,0.8703398065724872,2.8589160285533202e-05,1072.3805522208677,32103.83530770737,3250,0.06198129949903598,0.06269142400783818,3309.4606446351486
70,224.1565425,1066,32189,0.8697053263836744,2.7944135410586202e-05,1073.544021382117,32663.790414278297,3306,0.06259486331971309,0.06275676275108157,3352.8357607193175
71,224.69461032499999,1055,32874,0.8700422735223692,2.7343482621149915e-05,1074.1227434369769,33222.43944370137,3352,0.06280797958078135,0.06282295373221845,3395.731998459696
72,225.23257279999999,1055,33550,0.8700397124616915,2.6774571856029898e-05,1074.1120523680963,33775.114906339244,3407,0.06297379300538232,0.06289624086785685,3438.447212847337
73,225.77042992499997,1061,34440,0.8700678242154535,2.6066323862771607e-05,1073.7221454619378,34315.45500464271,3486,0.06321083536722115,0.0629930012208969,3480.8504382884557
74,226.30818169999998,1060,35079,0.8699872642519537,2.557356960086874e-05,1073.7579107114339,34843.894108586166,3528,0.06311556977494405,0.0630868757340545,3522.6702530067955
75,226.84582812499997,1066,35566,0.8700242014773532,2.521809279644502e-05,1073.7199030555412,35366.51722575755,3572,0.06319654054789121,0.06316068297826358,3563.7133117397225
76,227.3833692,1085,36201,0.8696880407569096,2.476614764656879e-05,1073.3004598065436,35881.21610908445,3649,0.06350040256580237,0.06323271161158998,3604.0891073409803
77,227.92080492499997,1086,36591,0.87010037851645,2.450641820916631e-05,1073.0964234750297,36383.3901787123,3675,0.06344711674353158,0.06330579546405771,3644.09245962529
78,228.45813529999998,1109,36799,0.8693067287349536,2.435715126744056e-05,1073.2542299938639,36874.02548189017,3712,0.06340166474914778,0.06337283491339876,3683.4380393666197
79,228.99536032499998,1131,37048,0.8691277262341458,2.419822719698599e-05,1073.7303449681554,37347.18906430426,3756,0.06352034639208823,0.06343402339738435,3721.637319078504
80,229.53248,1110,37565,0.86926662631248,2.3844921857426414e-05,1073.914697954633,37795.6578857951,3766,0.06333211245332455,0.06350692929078555,3758.3085460598622
81,230.069494325,1091,38334,0.8686441253792921,2.3323688354302612e-05,1073.803846066708,38226.80062968511,3782,0.06276404536142832,0.06359158935751952,3793.9622641508704
82,230.60640329999998,1082,38821,0.868302707705708,2.3008100577803018e-05,1073.9076083263285,38633.674601915496,3811,0.06278910647682444,0.06367859687991947,3828.263063715979
83,231.143206925,1068,39255,0.8687016218294412,2.2748621830189364e-05,1073.9806790640578,38998.7060182556,3861,0.06353690077171889,0.06377310099252342,3859.893134612261
84,231.67990519999998,1048,39573,0.8683284847277679,2.2539350674309356e-05,1073.4292282950712,39320.13893859355,3902,0.0643273068244789,0.06388061048480517,3888.110919839559
85,232.216498125,1051,39909,0.8683608504247778,2.234702893676406e-05,1073.3530997304376,39612.34166119202,3929,0.06431474928000697,0.06396335916866737,3913.6779768510437
86,232.75298569999998,1068,40374,0.868249886800152,2.2089499994915586e-05,1073.3388525221205,39878.58597023638,3967,0.06403746048526028,0.06403018417922596,3936.8875625721225
87,233.289367925,1074,40777,0.867778574191436,2.1856750728948342e-05,1073.1182359736142,40111.91682710743,3989,0.06371242837488442,0.06409122500382858,3957.376067408019
88,233.8256448,1073,41023,0.8676471171202086,2.171832583529934e-05,1073.0330018799766,40303.20738861504,4002,0.06361297637159176,0.0641666284888027,3975.3299508481873
89,234.36181632499998,1066,41060,0.8677489292852631,2.16969777787984e-05,1073.0872726448865,40444.85548936478,4023,0.06415796329190686,0.06425326963159977,3990.027271285797
90,234.89788249999998,1063,41003,0.8672589311593729,2.1714044345502577e-05,1073.0741126639127,40558.18534961076,4032,0.06446899766179714,0.06435123426572974,4003.0805454256406
91,235.433843325,1073,41020,0.8668004592010585,2.1698762340127133e-05,1072.7628711861898,40652.17977757063,4055,0.06470570929825911,0.06445660705811446,4014.7668350358244
92,235.9696988,1077,41195,0.8665578153052318,2.160022471970766e-05,1072.5921764932182,40710.74472807914,4075,0.06475747370968356,0.06456000530951815,4023.9908038686394
93,236.505448925,1071,41311,0.8666098942893835,2.1536031170213307e-05,1072.4528528392284,40728.64757978585,4081,0.06482345382234206,0.0646453948261579,4029.4439285147246
94,237.04109369999998,1056,41382,0.8664654382940954,2.1486520812728648e-05,1072.1636730163557,40712.8780946333,4079,0.0649537524168787,0.064715807135112,4031.889397268264
95,237.576633125,1042,41355,0.8658853313998153,2.1479059643286663e-05,1071.9034179709415,40657.882352940396,4086,0.0653822575541646,0.06479491038926932,4031.9238034835803
96,238.11206719999998,1047,41304,0.8659634438688039,2.151087870106575e-05,1071.1592561552718,40567.263335522104,4101,0.06569422355305479,0.06489644788927366,4029.7784321274908
97,238.64739592499998,1058,41256,0.8653764850454776,2.1527849272239355e-05,1070.1736845681464,40455.16881469491,4082,0.06510021619925181,0.06500123178983007,4025.7538562594077
98,239.1826193,1068,41116,0.865240351462597,2.1605082687340116e-05,1069.1363564293438,40333.12120319749,4069,0.06483685314470769,0.06510355375081973,4020.8895558222516
99,239.71773732499997,1065,40959,0.8654717432609225,2.1694283432619503e-05,1068.2889080160162,40218.26770708206,4078,0.06536487598248256,0.06520296907992285,4016.689687195556
100,240.25275,1076,40593,0.8654328986505,2.1900268204835894e-05,1067.556433894292,40104.97635280451,4069,0.06554750273707383,0.06529466636258849,4012.328523862298
101,240.787657325,1087,40219,0.8649750843904328,2.2104034661924583e-05,1066.9302135948515,39987.71874787575,4046,0.06540583856463485,0.06539790789311967,4008.315341230755
102,241.3224593,1083,39974,0.8650023747478218,2.2241710800643384e-05,1066.891322566742,39882.5071236034,4014,0.06519045435668576,0.06551628407199317,4006.4312894968543
103,241.85715592499997,1080,39648,0.864426750181391,2.241305616525075e-05,1067.3361571043308,39781.80778726509,3996,0.0653564717778712,0.0656221854677827,4004.717207637696
104,242.3917472,1077,39391,0.8640504083213235,2.2551819395555762e-05,1068.3441301048515,39677.29146752964,3990,0.06569344989925394,0.0657122522897047,4002.58563047853
105,242.92623312499998,1073,39310,0.8638615542876957,2.2592294225166613e-05,1070.087385897735,39578.47126775162,3979,0.06565320701833417,0.06579749375333549,4001.4273709483023
106,243.46061369999998,1071,38917,0.8647030136247108,2.284793673372908e-05,1071.7419420598221,39503.20365127107,3944,0.06564212223600364,0.06587625673741772,4001.7252712404943
107,243.994888925,1069,38639,0.863747888775786,2.2990361692195527e-05,1073.0188905750774,39453.57937892062,3916,0.06545355973768066,0.06593147375616931,4002.61306031839
108,244.52905879999997,1075,38790,0.8628771528607923,2.2878885134848e-05,1073.9369861151802,39418.58814469108,3919,0.06506754932350771,0.06597504338850939,4003.8476522683773
109,245.063123325,1090,38930,0.8633129275796555,2.2814823667538463e-05,1074.417042288593,39405.42091553527,3940,0.06502224745248462,0.06603739651556033,4007.201975129598
110,245.59708249999997,1081,38694,0.8623491049005171,2.2926889769508337e-05,1074.1324831819313,39425.22206618421,3941,0.06557090474079384,0.06612065102937807,4013.3362703571224
111,246.130936325,1077,38409,0.862505803534046,2.3103659153917445e-05,1073.668622165827,39492.5915649271,3937,0.0660764651802039,0.06620166405447274,4022.860970803338
112,246.66468479999997,1078,38420,0.8631762817630669,2.311542718020103e-05,1073.5431380099003,39610.48907109938,3951,0.06641062228871757,0.06628050348070676,4036.5819157851042
113,247.19832792499997,1070,38687,0.8629529675416884,2.2940504759595087e-05,1073.221998233235,39778.895762077664,3970,0.06652746380282576,0.06634429275302695,4053.375682348334
114,247.7318657,1061,39297,0.8621360146885437,2.2547756425581747e-05,1072.618655009153,39994.919930235475,4020,0.06671881126329639,0.0663890733104682,4072.5729914606577
115,248.265298125,1059,39486,0.8624878814902607,2.2444840385412878e-05,1072.3221590522796,40250.756642278786,4033,0.0667509553062179,0.06642607687733111,4094.565992434632
116,248.79862519999998,1063,39353,0.862427427307537,2.2523568224276233e-05,1072.3641079072934,40535.64914267516,4023,0.06666976194385765,0.06644792576706753,4118.2163808919
117,249.33184692499998,1056,39622,0.8621956715984717,2.235636756724762e-05,1072.6883055108628,40840.47464268647,4042,0.06675611355580138,0.06646194429658084,4143.345851548087
118,249.8649633,1062,40120,0.8614594306460737,2.2055902264480355e-05,1073.1274321048968,41182.763278895676,4100,0.06700583107949132,0.0664698432258266,4171.157512061349
119,250.397974325,1081,40547,0.861591555373828,2.1831235883388944e-05,1073.3299055471039,41570.2842419979,4142,0.06682541303905355,0.06646597049341997,4201.435502502807
