,x_(nm),baseline_dark,baseline_light,baseline_mirror,baseline_calibration,baseline_dark_smoothed,baseline_light_smoothed,raw_signal,calibrated_signal,calibrated_signal_smoothed,raw_signal_smoothed
0,186.23,1019,1019,0.3621226043733797,inf,1003.9630167177331,3740.1220802463986,1003,-inf,,1192.341409197126
1,186.775442325,1026,1018,1.18800459154587,-0.14850057394323374,1011.4041884452535,2806.5101770429287,999,4.009515496467311,,1127.5063010077447
2,187.3207793,1023,1023,1.908567993433533,inf,1018.3347103589053,1989.7765986575332,1005,-inf,,1071.2863434552994
3,187.86601092499998,1014,1019,1.7279185264672412,0.34558370529344823,1024.7705395397957,1285.92977180552,1003,-3.8014207582279305,,1023.382108124657
4,188.41113719999998,1015,1011,1.043047789334166,-0.2607619473335415,1030.7276330690313,690.9781232021974,1002,3.3899053153360397,,983.4941666006839
5,188.956158125,1021,1014,0.840365554154959,-0.12005222202213699,1036.2219480277192,200.9300795628733,998,2.7612011065091506,,951.3230904682473
6,189.50107369999998,1029,1011,0.8202728553565946,-0.04557071418647748,1041.2694414969665,-188.2059323971448,1004,1.139267854661937,,926.569451312214
7,190.045883925,1049,1032,0.837733819880384,-0.04927845999296376,1045.8860705578797,-480.421485962549,1021,1.3797968798029854,,908.9338207174507
8,190.59058879999998,1058,1044,0.8116271105193998,-0.05797336503709999,1050.0877922915658,-679.708154418031,1028,1.7392009511129998,,898.1167702688242
9,191.135188325,1061,1045,0.8262856362484797,-0.05164285226552998,1053.8905637791322,-790.0575110482823,1033,1.4459998634348394,,893.8188715512013
10,191.67968249999998,1071,1058,0.8012221689422371,-0.06163247453401824,1057.3103421016851,-815.4611291379961,1042,1.787341761486529,,895.7406961494489
11,192.22407132499998,1056,1049,0.7775424502505143,-0.1110774928929306,1060.363084340332,-759.9105819718634,1039,1.8883173791798202,,903.5828156484338
12,192.7683548,1046,1042,0.7753865851703869,-0.19384664629259674,1063.0647475761796,-627.3974428345773,1034,2.326159755511161,,917.0458016330226
13,193.312532925,1046,1041,0.7956261498651602,-0.15912522997303205,1065.4312888903346,-421.913285010829,1034,1.9095027596763847,,935.8302256880825
14,193.8566057,1053,1048,0.7908861747409445,-0.1581772349481889,1067.4786653639042,-147.44968178531144,1038,2.3726585242228335,,959.6366593984801
15,194.400573125,1061,1064,0.7942231778648126,0.26474105928827085,1069.2228340779952,192.00179355728687,1050,-2.912151652170979,,988.1656743490821
16,194.9444352,1072,1065,0.7947581770897779,-0.11353688244139684,1070.6797521137146,592.4495677322675,1061,1.2489057068553653,,1021.1178421247555
17,195.488191925,1082,1071,0.7914877943554887,-0.07195343585049897,1071.8653765521692,1049.902067454942,1071,0.7914877943554887,,1058.1937343103673
18,196.0318433,1081,1074,0.7911116722494277,-0.11301595317848967,1072.7956644744659,1560.367719440621,1075,0.678095719070938,,1099.0939224907836
19,196.575389325,1082,1072,0.7900325230816138,-0.07900325230816138,1073.4865729617118,2119.85495040461,1071,0.8690357753897752,,1143.518978250872
20,197.11883,1075,1079,0.798472358442206,0.1996180896105515,1073.9540590950137,2724.3721870622126,1060,-2.9942713441582725,,1191.1694731754988
21,197.662165325,1090,1083,0.7981102791346143,-0.11401575416208776,1074.2140799554784,3369.927856128741,1070,2.280315083241755,,1241.745978849531
22,198.2053953,1097,1072,0.8040599544843242,-0.03216239817937297,1074.282592624213,4052.530384319506,1070,0.8683847508430702,,1294.9490668578355
23,198.74851992499998,1082,1065,0.8074165803696804,-0.047495092962922376,1074.1755541823245,4768.188198349815,1052,1.4248527888876712,,1350.4793087852788
24,199.2915392,1073,1075,0.8060625325032217,0.40303126625161084,1073.9089217109195,5512.909724934964,1058,-6.045468993774163,,1408.037276216728
25,199.83445312499998,1095,1100,0.8122546130835153,0.16245092261670308,1073.4986522910845,6282.703390790159,1088,-1.1371564583169216,inf,1467.3235407370212
26,200.3772617,1087,2055,0.8144257223941842,0.0008413488867708514,1072.960384153641,6966.978844367803,1168,0.06814925982843896,inf,1520.0228770753292
27,200.919964925,1063,6009,0.8150182986479615,0.00016478331958106782,1072.374572470477,7667.637092572731,1472,0.06739637770865674,inf,1573.740311218797
28,201.4625628,1056,10566,0.8232603193402961,8.656785692326982e-05,1071.6910009286528,8386.299304627351,1798,0.0642333498370662,-0.029204515397483984,1628.6557113411086
29,202.005055325,1060,12519,0.8194894939197722,7.151492223752267e-05,1071.25783143444,9121.455253799459,1932,0.062361012191119766,-0.22062523265047093,1685.2350902624878
30,202.5474425,1060,13363,0.8269202298982968,6.721289359491968e-05,1070.6913859883368,9868.493306756476,2006,0.06358339734079402,-0.20485593674451008,1742.6439330448827
31,203.089724325,1064,14020,0.8298864771900701,6.40542202215244e-05,1069.6147817617407,10626.578540850098,2056,0.06354178645975221,-0.19309164525949113,1799.6805137148854
32,203.63190079999998,1072,14694,0.8293789756785952,6.088525735417672e-05,1068.3832702892273,11398.845273958423,2119,0.06374686444982303,-0.22054280995554387,1857.208928854525
33,204.173971925,1064,15182,0.8303112569560028,5.881224372829033e-05,1067.7274909963778,12184.12031982581,2159,0.06439940688247792,-0.23595921272990478,1916.0910779405735
34,204.71593769999998,1059,15533,0.832804584655424,5.7537970475018924e-05,1067.3829758318218,12971.503069151942,2176,0.06426991302059613,-0.23378592995535732,1975.5172484087598
35,205.257798125,1066,15815,0.8371769300637781,5.676160621491478e-05,1067.2397789304196,13755.237015560679,2199,0.06431089984149845,-0.23272238478116153,2035.0293098371033
36,205.7995532,1060,16224,0.8381556767340916,5.527272993498362e-05,1067.7513873473713,14532.173752519599,2227,0.06450327583412588,-0.21360240297857896,2094.1047135835065
37,206.34120292499998,1058,16804,0.840625124319978,5.3386582263430586e-05,1067.7952161996668,15302.653695440147,2271,0.06475792428554131,-0.18184466853876904,2152.492491336116
38,206.88274729999998,1059,17425,0.8415937915656597,5.142330389622753e-05,1067.244037237516,16064.723685700386,2310,0.06433055317418064,-0.1255334943533888,2209.7479218101907
39,207.424186325,1053,17778,0.8431564976534377,5.041294455326982e-05,1066.3852861899272,16808.736279417102,2312,0.0634698971925667,-0.06934095593170446,2264.766902987567
40,207.96552,1051,18083,0.844165982526256,4.956352645175293e-05,1065.5192869600464,17533.5200570791,2324,0.06309436917308148,0.013260790968346165,2317.6421209992986
41,208.506748325,1062,18468,0.8476484869242688,4.869863764933177e-05,1064.4888898955605,18241.20949511845,2369,0.06364911940767662,-0.06082229276499961,2368.9887879679723
42,209.0478713,1075,18885,0.8491768105118729,4.7679775997297746e-05,1063.4719472694535,18927.120795487645,2418,0.06403393916437088,-0.016622395004467213,2418.6398785929005
43,209.588888925,1074,19390,0.8502736512177026,4.642245311299971e-05,1062.7526331287029,19586.850619492703,2457,0.0642022526552786,0.02047013751529056,2466.617794287479
44,210.12980119999997,1068,19795,0.8513731200582484,4.546233353223946e-05,1062.4323767242543,20218.351967201586,2473,0.06387457861279644,0.05912571150242337,2512.9014926724926
45,210.670608125,1059,20240,0.8534308197221572,4.4493551937967636e-05,1062.5451086094613,20808.24308591321,2501,0.06415970189454934,0.10869202563527616,2556.204965004821
46,211.2113097,1049,20673,0.8557212941711507,4.360585477839129e-05,1062.5158893745975,21351.712224512034,2527,0.06444945336246233,0.03904289475777365,2595.645427982464
47,211.751905925,1052,20939,0.8575135521308375,4.311930166092611e-05,1062.8054089560148,21846.90153797326,2549,0.06454959458640638,0.12334753729472762,2631.103581055013
48,212.29239679999998,1065,21261,0.8580327959771828,4.2485284015507175e-05,1063.822668690097,22284.785046093482,2592,0.06487502869167945,0.17584124806100787,2662.120954041943
49,212.83278232499998,1060,21699,0.8587529108532552,4.160826158502133e-05,1064.9659108926385,22669.789259099438,2629,0.06528336242689847,0.25235481040474717,2688.552130286025
50,213.37306249999997,1070,22174,0.8598387128136875,4.0742926118919994e-05,1065.7994292056242,23003.55573172621,2675,0.0653923964208666,0.09624179135513912,2710.7763935762464
51,213.91323732499998,1083,22712,0.8611437003932625,3.9814309510068076e-05,1066.5356406713424,23277.71075222497,2705,0.06457881002533042,0.06422741268422034,2729.3776302973492
52,214.45330679999998,1089,23342,0.8624756676121401,3.875772559260055e-05,1067.1343178780744,23524.03157489366,2748,0.06429906675812432,0.06434255602679953,2746.2158146276847
53,214.993270925,1087,23865,0.8630074298534857,3.7887761430041514e-05,1066.3625450179868,23843.7019864545,2790,0.0645228577153607,0.06444676111693903,2767.721715101082
54,215.5331297,1063,24354,0.8629495266956824,3.7050771830135346e-05,1064.875036807155,24271.049015832283,2800,0.0643571906689451,0.06445884156588348,2796.086411923206
55,216.07288312499998,1058,24918,0.8648478670709356,3.624676727036612e-05,1064.5636820765837,24737.547373665973,2829,0.0641930248358184,0.06441784014548535,2828.341525289307
56,216.61253119999998,1072,25444,0.8650803831098881,3.549484585220286e-05,1065.074520374167,25209.865523567438,2890,0.06452962975930479,0.06441076682489025,2862.3171985774893
57,217.152073925,1079,25752,0.8652291434094919,3.506785325698099e-05,1066.4191034904325,25690.7092799379,2927,0.06480539281890087,0.06438909909712018,2897.255339871742
58,217.69151129999997,1076,25989,0.8680312398394996,3.4842501498795795e-05,1068.3931459376,26186.350698769573,2938,0.06487673779075777,0.06435784963328009,2933.6255634328645
59,218.230843325,1073,26468,0.868212549145114,3.418832640854948e-05,1069.8195202609143,26696.229654125287,2957,0.06441080695370723,0.06433637797640132,2970.6005345533868
60,218.77006999999998,1068,27040,0.868144571802742,3.342617325591953e-05,1070.4405762304718,27214.430292871344,2980,0.06391084326531814,0.06432329258368613,3008.013024077498
61,219.30919132499997,1054,27648,0.8681762475955156,3.264556845888229e-05,1071.0166481686808,27733.021812498053,3017,0.06408325088478593,0.0643238819167063,3045.9880858003
62,219.84820729999998,1051,28125,0.868951283960652,3.209541567410254e-05,1071.8495775668553,28253.409726154066,3042,0.06390197260713815,0.06431429986284945,3083.8011053477403
63,220.38711792499998,1055,28549,0.8691522224557424,3.161243262005319e-05,1072.4886633898636,28785.617477178996,3069,0.06366743929678713,0.06430599706759772,3122.1933226120036
64,220.9259232,1059,29199,0.8692686507714266,3.0890854682708833e-05,1073.0508731794398,29335.58522276779,3131,0.0640058509025727,0.0642841683007565,3161.6689166231927
65,221.464623125,1061,29804,0.8701622824311823,3.0273885204438728e-05,1073.4473714013702,29894.689143581392,3190,0.06445310160025006,0.06423726172662822,3201.2955446328865
66,222.0032177,1072,30228,0.86932404321908,2.9816300014373713e-05,1073.2636752814128,30455.817164601107,3231,0.06437339173103285,0.06417674444258033,3240.4345738294696
67,222.54170692499997,1084,30657,0.8705973257298546,2.9438924888575884e-05,1073.273165870101,31016.263041064893,3270,0.06435348980642688,0.06412372549038797,3279.766382024445
68,223.0800908,1089,31099,0.8704844215444587,2.900647855862908e-05,1073.746449523185,31577.448435977563,3299,0.06410431761457026,0.06407871623313405,3319.843892273827
69,223.61836932499997,1080,31456,0.8703398065724872,2.865221907336342e-05,1074.368547418947,32138.344696368495,3311,0.0639231007526738,0.0640389383620255,3360.303381729986
70,224.1565425,1070,32129,0.8697053263836744,2.800171693820388e-05,1075.0191397313438,32696.64551858417,3346,0.06373190775135203,0.06399097813618632,3400.5667852045826
71,224.69461032499999,1070,32875,0.8700422735223692,2.7355518739895275e-05,1075.1177376610817,33253.60438514965,3393,0.06354687003277673,0.06395281550864305,3440.596253595713
72,225.23257279999999,1078,33580,0.8700397124616915,2.676880538002866e-05,1074.427688056334,33805.89995243315,3458,0.0637097568044682,0.06392523317780668,3479.8364855375444
73,225.77042992499997,1066,34483,0.8700678242154535,2.6036682653004562e-05,1073.728306416886,34348.06811026232,3524,0.06399816596108521,0.06389375686878143,3518.087725656233
74,226.30818169999998,1049,35134,0.8699872642519537,2.552405058682569e-05,1073.329429885141,34877.88708690956,3567,0.06426955937762709,0.06386285261957497,3555.596162993431
75,226.84582812499997,1049,35594,0.8700242014773532,2.518524248016654e-05,1072.7262225644768,35401.451199346986,3609,0.06447422074922635,0.06383869920648949,3592.490996398491
76,227.3833692,1077,36195,0.8696880407569096,2.4764737193374042e-05,1072.1916917710273,35916.830709641654,3647,0.06364537458697128,0.06382594125901263,3629.198872001561
77,227.92080492499997,1081,36572,0.87010037851645,2.4516085162899045e-05,1071.8705972955013,36418.55700015786,3669,0.06344762840158273,0.06379819461319526,3664.8831683616145
78,228.45813529999998,1111,36795,0.8693067287349536,2.436124674181576e-05,1071.906136039301,36909.350970576204,3723,0.06363157648962277,0.06376569180709366,3699.995719042263
79,228.99536032499998,1138,37107,0.8691277262341458,2.416324407779326e-05,1072.4243584225937,37382.29081066317,3780,0.0638392908535298,0.06372720983434038,3733.8770074066647
80,229.53248,1111,37653,0.86926662631248,2.37881513412643e-05,1072.525674420691,37830.08276518082,3781,0.06351436408117568,0.06366382247740388,3764.5902511947456
81,230.069494325,1087,38429,0.8686441253792921,2.326185328528981e-05,1072.1322793268043,38262.254547101125,3804,0.06320245537613242,0.06358915646080335,3793.3316269903457
82,230.60640329999998,1062,39014,0.868302707705708,2.2878971008265916e-05,1072.341162880226,38672.458334276365,3832,0.06337474969289658,0.06352377438735506,3821.2353847198524
83,231.143206925,1045,39441,0.8687016218294412,2.2624794817935232e-05,1073.1030147908016,39039.907585675035,3860,0.06368879741248767,0.0634710327581075,3846.920360596995
84,231.67990519999998,1051,39691,0.8683284847277679,2.247226927349296e-05,1073.8331332532807,39360.9948809705,3896,0.06393360608308747,0.06342098258740815,3869.1564927857194
85,232.216498125,1070,39948,0.8683608504247778,2.23355329601517e-05,1074.3182178531583,39652.439692857515,3912,0.06347758467275114,0.06336470127472399,3888.843665768119
86,232.75298569999998,1078,40343,0.868249886800152,2.2112565562209398e-05,1074.2388502570634,39920.87909125837,3923,0.06291024902448573,0.06329197206967441,3905.882692699646
87,233.289367925,1062,40778,0.867778574191436,2.1849596489863935e-05,1073.7829622414797,40158.251738430445,3960,0.06332013062762569,0.06322612788234247,3920.652744116439
88,233.8256448,1063,41019,0.8676471171202086,2.1715064498954064e-05,1073.186572742284,40351.97587714253,3988,0.06351656365944064,0.06316845379597025,3932.5096151667453
89,234.36181632499998,1063,41059,0.8677489292852631,2.169589282141372e-05,1072.7578654102947,40495.35416430646,3992,0.06354727007392079,0.06309291063519987,3940.132687037003
90,234.89788249999998,1058,41039,0.8672589311593729,2.1691776872999e-05,1072.757095290926,40609.092550226866,3981,0.06340506379977608,0.06301322754459009,3945.7561213163754
91,235.433843325,1071,41102,0.8668004592010585,2.1653230226600846e-05,1072.9264536002875,40702.349249132836,3990,0.06320577903144788,0.06294326170382775,3950.2554078234307
92,235.9696988,1073,41248,0.8665578153052318,2.1569578476794816e-05,1073.1713968606105,40762.558042083976,4004,0.0632204345154856,0.0628718661444675,3952.4078008561155
93,236.505448925,1070,41301,0.8666098942893835,2.154084895452222e-05,1073.3732813880063,40782.0225599666,4001,0.06313622828570463,0.0628159771674028,3952.0884278238836
94,237.04109369999998,1064,41411,0.8664654382940954,2.147533740536088e-05,1073.4780629232619,40764.238714352876,3996,0.0629656892725181,0.06275968233375927,3949.045912704629
95,237.576633125,1055,41432,0.8658853313998153,2.144501402778352e-05,1073.4233844480982,40707.409499648136,3979,0.06270522101723902,0.06269124012379725,3942.5475322203606
96,238.11206719999998,1061,41363,0.8659634438688039,2.1486860301444192e-05,1073.3150467734058,40616.79464993467,3965,0.062397842315393935,0.0626143417904765,3933.2527577067813
97,238.64739592499998,1074,41306,0.8653764850454776,2.1509656120637243e-05,1073.301909443002,40504.940723458414,3960,0.06207686756415908,0.06254759404263621,3922.889148112
98,239.1826193,1074,41157,0.865240351462597,2.1586217385490034e-05,1073.65032050554,40383.017984551545,3950,0.06208196120066934,0.062495991033370196,3912.8861129356656
99,239.71773732499997,1075,41013,0.8654717432609225,2.16703826746688e-05,1073.7089401798248,40269.45733765127,3947,0.06223733904164879,0.062450629577228425,3903.540216086359
100,240.25275,1076,40652,0.8654328986505,2.1867619230101578e-05,1073.2008426011707,40158.929058415044,3929,0.062388317663479805,0.062411510537328574,3894.0031710796775
101,240.787657325,1084,40264,0.8649750843904328,2.2076954680715487e-05,1072.4291376927924,40043.88178667617,3899,0.062146627426214095,0.06238672801890474,3884.4307685337544
102,241.3224593,1094,40023,0.8650023747478218,2.2219999865083146e-05,1072.4995130127318,39938.39425581477,3874,0.061771599624931145,0.06234123639969123,3875.441822011749
103,241.85715592499997,1095,39709,0.864426750181391,2.2386355989573498e-05,1072.800901492652,39838.961765837645,3839,0.06142816083538968,0.06229720096552265,3867.1631294026297
104,242.3917472,1083,39454,0.8640504083213235,2.251831873866523e-05,1073.6411470248272,39737.596683955846,3820,0.06163263838772673,0.06226239169132507,3859.7193594418163
105,242.92623312499998,1075,39357,0.8638615542876957,2.2565737273070782e-05,1075.1366735373188,39642.18926815934,3831,0.06219117192458307,0.06223801392227407,3853.8173684567428
106,243.46061369999998,1086,38951,0.8647030136247108,2.2836472035513294e-05,1076.65299327276,39570.964325352026,3816,0.062343568656951294,0.06220002777006793,3848.965752338598
107,243.994888925,1080,38652,0.863747888775786,2.2989137889273556e-05,1077.971414981066,39526.08256132566,3792,0.062346541955709885,0.06214799227651999,3845.1488821943135
108,244.52905879999997,1069,38805,0.8628771528607923,2.286615308619865e-05,1078.3493397358736,39498.8867018498,3791,0.062241668700632725,0.062109587258196014,3842.5032050555337
109,245.063123325,1067,38996,0.8633129275796555,2.2761288923505906e-05,1078.2050782576976,39492.44653332956,3805,0.062320409072559174,0.06209588384682292,3842.073614351327
110,245.59708249999997,1072,38836,0.8623491049005171,2.2835216208572107e-05,1078.2153163151847,39516.86162766918,3793,0.062134623303524705,0.06208947708432421,3844.240073387772
111,246.130936325,1087,38504,0.862505803534046,2.3051174694231127e-05,1078.6166617590225,39585.14906339818,3784,0.06216901815034135,0.06206839169211455,3849.150716890456
112,246.66468479999997,1086,38473,0.8631762817630669,2.3087604829568215e-05,1079.360098756463,39701.722168111766,3774,0.062059481781879366,0.06203657374609643,3857.368207660349
113,247.19832792499997,1086,38788,0.8629529675416884,2.2888784879892004e-05,1079.5545765475795,39868.54988787892,3773,0.06150216497226982,0.06202260334311262,3869.592697456267
114,247.7318657,1082,39371,0.8621360146885437,2.2516545605488356e-05,1079.284876214616,40079.44159550536,3823,0.06171785150464359,0.06201860072458878,3884.9908718203524
115,248.265298125,1068,39578,0.8624878814902607,2.2396465372377584e-05,1078.8144691838793,40328.775578155015,3842,0.06212779494297542,0.062018631157793686,3903.1150422432374
116,248.79862519999998,1059,39484,0.862427427307537,2.2444435323553335e-05,1078.3303812090667,40609.58717071657,3836,0.06232819689350761,0.062018889969521526,3923.485447008917
117,249.33184692499998,1063,39670,0.8621956715984717,2.2332625472025063e-05,1078.5872613196013,40913.3919001555,3860,0.062464353445254105,0.06200393670489539,3945.3926023238732
118,249.8649633,1076,40203,0.8614594306460737,2.201700694267574e-05,1079.2716482819335,41254.68465876837,3895,0.06206594257140291,0.061989678020416716,3970.3410722778917
