,x_(nm),baseline_dark,baseline_light,baseline_mirror,baseline_calibration,baseline_dark_smoothed,baseline_light_smoothed,raw_signal,calibrated_signal,calibrated_signal_smoothed,raw_signal_smoothed
0,186.23,1287,1314,0.3621226043733797,0.013411948310125174,1279.3853553032225,4198.504431606545,1312,0.33529870775312937,,1442.6812753161248
1,186.775442325,1280,1301,1.18800459154587,0.05657164721647,1283.5257292467043,3205.86842223424,1301,1.18800459154587,,1394.6370452583542
2,187.3207793,1292,1302,1.908567993433533,0.19085679934335328,1287.449719510444,2337.2499989190965,1294,0.38171359868670657,,1352.8533077865877
3,187.86601092499998,1300,1307,1.7279185264672412,0.24684550378103445,1291.16215426664,1588.4149117863535,1296,-0.9873820151241378,,1317.1146202844945
4,188.41113719999998,1292,1304,1.043047789334166,0.08692064911118051,1294.6678616874894,955.1289109612517,1301,0.7822858420006246,,1287.2055401357443
5,188.956158125,1294,1296,0.840365554154959,0.4201827770774795,1297.9716699451903,433.15774656902977,1297,1.2605483312324384,,1262.9106247240063
6,189.50107369999998,1296,1292,0.8202728553565946,-0.20506821383914864,1301.0784072119404,18.26716873492751,1303,-1.4354774968740405,,1244.0144314329502
7,190.045883925,1301,1311,0.837733819880384,0.0837733819880384,1303.9929016599374,-293.7770724158154,1317,1.3403741118086143,,1230.3015176462454
8,190.59058879999998,1304,1318,0.8116271105193998,0.05797336503709999,1306.7199814613791,-507.2092267579592,1319,0.8696004755564999,,1221.5564407475615
9,191.135188325,1308,1316,0.8262856362484797,0.10328570453105997,1309.2644747884633,-626.2635441662642,1328,2.0657140906211993,,1217.5637581205679
10,191.67968249999998,1315,1325,0.8012221689422371,0.0801222168942237,1311.6312098133876,-655.1742745154934,1334,1.5223221209902504,,1218.1080271489338
11,192.22407132499998,1318,1329,0.7775424502505143,0.07068567729550129,1313.8250147083502,-598.1756676804025,1316,-0.14137135459100258,,1222.973805216329
12,192.7683548,1307,1323,0.7753865851703869,0.048461661573149184,1315.8507176455482,-459.5019735357564,1310,0.14538498471944755,,1231.9456497064234
13,193.312532925,1300,1309,0.7956261498651602,0.08840290554057335,1317.71314679718,-243.3874419563126,1315,1.3260435831086004,,1244.8081180028855
14,193.8566057,1311,1306,0.7908861747409445,-0.1581772349481889,1319.4171303354428,45.933677183165855,1317,-0.9490634096891333,,1261.3457674893857
15,194.400573125,1316,1316,0.7942231778648126,inf,1320.9674964325347,404.22713400792327,1318,inf,,1281.343155549593
16,194.9444352,1317,1325,0.7947581770897779,0.09934477213622224,1322.3690732606535,827.2586786431948,1329,1.192137265634667,,1304.5848395671765
17,195.488191925,1326,1335,0.7914877943554887,0.08794308826172097,1323.6266889919968,1310.7940612142202,1345,1.6709186769726985,,1330.8553769258067
18,196.0318433,1340,1352,0.7911116722494277,0.0659259726874523,1324.7451717987626,1850.5990318462414,1349,0.5933337541870707,,1359.939325009152
19,196.575389325,1338,1347,0.7900325230816138,0.08778139145351264,1325.7293498531483,2442.4393406644976,1337,-0.08778139145351264,,1391.6212412008829
20,197.11883,1327,1331,0.798472358442206,0.1996180896105515,1326.584051327352,3082.0807377942238,1322,-0.9980904480527575,,1425.6856828846683
21,197.662165325,1320,1339,0.7981102791346143,0.0420058041649797,1327.3141043935711,3765.288973360669,1325,0.2100290208248985,,1461.9172074441774
22,198.2053953,1328,1349,0.8040599544843242,0.0382885692611583,1327.9243372240037,4487.829797489063,1337,0.3445971233504247,,1500.1003722630803
23,198.74851992499998,1331,1344,0.8074165803696804,0.06210896772074465,1328.4195779908473,5245.468960304652,1326,-0.3105448386037233,,1540.0197347250464
24,199.2915392,1341,1341,0.8060625325032217,inf,1328.8046548662999,6033.972211932667,1321,-inf,,1581.459852213745
25,199.83445312499998,1363,1367,0.8122546130835153,0.20306365327087883,1329.0843960225345,6849.1053024982275,1352,-2.233700185979667,,1624.205282112814
26,200.3772617,1356,2379,0.8144257223941842,0.000796115075654139,1329.675643842417,7574.871911028417,1416,0.04776690453924834,,1662.8448435977843
27,200.919964925,1325,6528,0.8150182986479615,0.0001566439167111208,1329.5886203537766,8316.15006002385,1635,0.04855961418044744,,1701.3649686289284
28,201.4625628,1308,11374,0.8232603193402961,8.178624273199842e-05,1329.3033817300252,9075.17850913933,1863,0.045391364716259125,,1740.004258307063
29,202.005055325,1311,13436,0.8194894939197722,6.758676238513586e-05,1329.2522593942986,9852.939069967422,1970,0.04453967641180453,,1779.7835285057076
30,202.5474425,1309,14344,0.8269202298982968,6.343845261973891e-05,1329.1258692155852,10645.37618066074,2029,0.04567568588621202,,1820.0503522163235
31,203.089724325,1316,15017,0.8298864771900701,6.057123401139115e-05,1328.659244829982,11450.810686538545,2058,0.044943855636452236,,1860.3781512604687
32,203.63190079999998,1327,15704,0.8293789756785952,5.768790259988838e-05,1327.8498493736863,12270.90593218396,2095,0.04430430919671427,,1901.474687988366
33,204.173971925,1335,16255,0.8303112569560028,5.5650888535925125e-05,1327.3082289519327,13102.187478764841,2122,0.04379724927777307,,1944.229586174055
34,204.71593769999998,1341,16639,0.832804584655424,5.443878838118865e-05,1326.8453419103234,13935.05581100338,2136,0.043278836763044976,,1987.492378083271
35,205.257798125,1331,16954,0.8371769300637781,5.35861825554489e-05,1326.5154816643383,14764.688599968007,2159,0.04436935915591169,-inf,2030.7963034269922
36,205.7995532,1332,17387,0.8381556767340916,5.220527416593532e-05,1326.30639425579,15587.72221341337,2177,0.044113456670215344,-inf,2073.8125891865784
37,206.34120292499998,1335,18019,0.840625124319978,5.038510694797279e-05,1325.9676776370675,16405.925796733478,2197,0.043431962189152545,-inf,2116.1309429431744
38,206.88274729999998,1321,18686,0.8415937915656597,4.8464946246222845e-05,1325.015583591902,17214.141815216324,2216,0.043376126890369446,-inf,2157.9510294683496
39,207.424186325,1319,19045,0.8431564976534377,4.756608922788208e-05,1323.774740084688,18001.053296790073,2224,0.04304731075123328,-inf,2198.924097941021
40,207.96552,1323,19353,0.844165982526256,4.682007667921553e-05,1323.105189245484,18767.449206097175,2245,0.04316811069823672,-inf,2239.0175768420145
41,208.506748325,1319,19697,0.8476484869242688,4.6122999614989047e-05,1322.356225509046,19515.24614374014,2282,0.044416448629234453,-inf,2278.15449953562
42,209.0478713,1326,20144,0.8491768105118729,4.512577375448363e-05,1321.3249224217734,20240.963872341003,2320,0.044855019111956725,-inf,2316.7685111780115
43,209.588888925,1324,20766,0.8502736512177026,4.373385717609827e-05,1320.7069242791201,20939.517248408396,2353,0.04500213903420512,-inf,2354.7268794309725
44,210.12980119999997,1313,21227,0.8513731200582484,4.27524917172968e-05,1320.8822396883027,21606.704523318353,2371,0.04523213623690001,inf,2392.118054769032
45,210.670608125,1305,21702,0.8534308197221572,4.184099719184964e-05,1321.4375410541322,22229.17563251673,2392,0.04548116394754056,inf,2427.476658587917
46,211.2113097,1312,22131,0.8557212941711507,4.1102900916045474e-05,1321.9725928106839,22806.002423610516,2410,0.04513098520581793,inf,2460.2994405308823
47,211.751905925,1315,22358,0.8575135521308375,4.075053709693663e-05,1322.0097170943595,23332.69161249361,2429,0.045396098325987407,inf,2491.0283811637382
48,212.29239679999998,1324,22706,0.8580327959771828,4.0128743615058594e-05,1321.818274479578,23797.506217580918,2459,0.04554612400309151,inf,2519.0016534915367
49,212.83278232499998,1329,23164,0.8587529108532552,3.932919216181613e-05,1321.7901424720578,24206.638859316845,2481,0.045307229370412185,inf,2544.3729642800026
50,213.37306249999997,1320,23626,0.8598387128136875,3.8547418309588786e-05,1322.1864368388615,24560.943803936196,2496,0.04533176393207641,0.10647162186737294,2566.9378694873685
51,213.91323732499998,1309,24204,0.8611437003932625,3.761274079027135e-05,1322.8286484404828,24851.778115019115,2524,0.04569948006017969,0.04595041117621073,2586.569163514413
52,214.45330679999998,1317,24922,0.8624756676121401,3.6537838068720195e-05,1323.2376950780058,25112.119980067022,2581,0.04618382731886233,0.04623582829949692,2605.6922693605247
53,214.993270925,1330,25525,0.8630074298534857,3.566883363725917e-05,1322.718725225914,25447.672359509354,2633,0.046476490229348695,0.04657076716930983,2629.176561190464
54,215.5331297,1327,26021,0.8629495266956824,3.494571663949471e-05,1321.649120025343,25897.442025866454,2656,0.04644285741388846,0.04682690441697185,2658.110534779899
55,216.07288312499998,1317,26558,0.8648478670709356,3.426361344918726e-05,1321.06394255813,26389.394459670155,2701,0.04742084101367517,0.04707905894780946,2690.6285306574946
56,216.61253119999998,1325,27053,0.8650803831098881,3.3624082054955226e-05,1320.8616956216194,26886.919816982878,2750,0.0479143169283112,0.04737826210210985,2724.8136990644794
57,217.152073925,1335,27377,0.8652291434094919,3.32243738349394e-05,1321.3185349611292,27391.919092164644,2782,0.048075668939157316,0.04766491549280171,2760.106231171661
58,217.69151129999997,1328,27707,0.8680312398394996,3.290614654988815e-05,1322.0823121701255,27910.840539989047,2786,0.04797716166973692,0.047935092877496845,2796.549457518803
59,218.230843325,1325,28234,0.868212549145114,3.226476454513783e-05,1322.9317311830137,28444.639153774173,2810,0.04791317534952968,0.04818178817670422,2833.574531699418
60,218.77006999999998,1321,28818,0.868144571802742,3.157233777512972e-05,1323.8876984755914,28985.710752224863,2853,0.04836882147149873,0.04840899141447385,2871.0673854446886
61,219.30919132499997,1321,29434,0.8681762475955156,3.0881664980454434e-05,1324.6387460644382,29524.99768964133,2903,0.04885479399907892,0.0486569037942064,2908.6550771251345
62,219.84820729999998,1327,29874,0.868951283960652,3.0439320557699655e-05,1325.7577295068718,30064.914403496674,2938,0.04903774541845415,0.048888563317292806,2946.4143695213374
63,220.38711792499998,1336,30349,0.8691522224557424,2.99573371404454e-05,1327.453690910301,30616.515504314346,2970,0.048950288887487786,0.04908548294646164,2984.6980679063504
64,220.9259232,1337,31094,0.8692686507714266,2.9212240843210895e-05,1328.788919341296,31188.590681555048,3020,0.049164201339123935,0.049267402066725675,3023.692880925897
65,221.464623125,1326,31728,0.8701622824311823,2.862187627232361e-05,1330.0006795170643,31770.26084395962,3065,0.04977344283757076,0.04943152741475326,3063.1248725904875
66,222.0032177,1332,32184,0.86932404321908,2.8177234643429274e-05,1330.9726607623927,32353.37214885893,3107,0.05001459149208696,0.049583191234966364,3102.383224988049
67,222.54170692499997,1343,32608,0.8705973257298546,2.7845748464092582e-05,1331.6311581236012,32932.11961765775,3139,0.050010964241510275,0.049764385854319276,3142.0537724523174
68,223.0800908,1340,33052,0.8704844215444587,2.7449685341336363e-05,1332.6065596049486,33508.25688010989,3176,0.05039762228669356,0.049944121133634285,3181.9424222518587
69,223.61836932499997,1330,33491,0.8703398065724872,2.706196345177349e-05,1333.3565199664515,34087.269473826615,3191,0.05036231398375047,0.05011284452290078,3221.567510022815
70,224.1565425,1317,34230,0.8697053263836744,2.642437111122275e-05,1333.8221250764202,34665.64103377133,3230,0.05054982193576912,0.050276858977460384,3260.899997734881
71,224.69461032499999,1305,34870,0.8700422735223692,2.592111644636881e-05,1333.9934539853423,35243.17325420667,3274,0.051038678282900186,0.05044146538893704,3300.1732089061406
72,225.23257279999999,1311,35558,0.8700397124616915,2.5404844583808553e-05,1333.9780515979721,35816.17835058483,3313,0.050860498856784724,0.050584338402539744,3338.575460372764
73,225.77042992499997,1325,36549,0.8700678242154535,2.4700994328169813e-05,1334.4348682869118,36376.28397019115,3380,0.05076054334438897,0.050698763028500904,3375.560669550775
74,226.30818169999998,1323,37207,0.8699872642519537,2.4244433849402344e-05,1335.2721239438915,36923.720129560556,3413,0.0506708667452509,0.05079864427224517,3411.8769621055317
75,226.84582812499997,1320,37672,0.8700242014773532,2.393332420437261e-05,1336.1850325035418,37466.799542457775,3448,0.05093011390690491,0.050884049609376716,3447.994314706949
76,227.3833692,1340,38288,0.8696880407569096,2.353816284391333e-05,1336.5631384629069,38001.988267004184,3520,0.051313194999731054,0.05095832487861851,3483.075970010579
77,227.92080492499997,1352,38691,0.87010037851645,2.3302723118360158e-05,1336.2740718928826,38523.91068880309,3545,0.05110287179856383,0.05102789118159394,3516.744456273008
78,228.45813529999998,1362,38941,0.8693067287349536,2.313277971034231e-05,1336.420983487709,39037.47142630562,3577,0.051239107058408215,0.05109344016881597,3550.178010826904
79,228.99536032499998,1370,39253,0.8691277262341458,2.2942420775391226e-05,1337.177852272959,39534.36913633301,3617,0.051551619482304085,0.05114345625945565,3582.6492106275787
80,229.53248,1361,39763,0.86926662631248,2.2635972769972395e-05,1337.6936057441587,40005.64848580865,3623,0.05120257040567756,0.051185437073900754,3613.415026387844
81,230.069494325,1348,40577,0.8686441253792921,2.2142907680014584e-05,1337.630161498536,40462.44343020149,3653,0.051039402202433616,0.05124954264634283,3643.6728804728737
82,230.60640329999998,1332,41184,0.868302707705708,2.1788183973344075e-05,1337.545357765722,40895.024258759324,3673,0.05100613868159848,0.05133390504048973,3673.379555595752
83,231.143206925,1332,41621,0.8687016218294412,2.1561756852476886e-05,1337.875852227658,41284.98643230798,3698,0.051015116712960315,0.051431968723919946,3701.700944528684
84,231.67990519999998,1339,41880,0.8683284847277679,2.1418526546650747e-05,1337.9676776370668,41632.396384968284,3732,0.05125453402613524,0.05151815275264696,3726.9242338444096
85,232.216498125,1346,42179,0.8683608504247778,2.1266153611656695e-05,1337.6967315227723,41952.055992207395,3754,0.051208897896869325,0.05159936669141928,3750.129878366369
86,232.75298569999998,1348,42665,0.868249886800152,2.1014349705935863e-05,1337.1100364673914,42249.499286506245,3795,0.05142211373042506,0.05167775851175903,3771.647285329154
87,233.289367925,1340,43159,0.867778574191436,2.075082077982343e-05,1336.4769983464828,42516.81825182822,3827,0.05160729127942087,0.051749412838824047,3791.0378491018328
88,233.8256448,1325,43462,0.8676471171202086,2.0591098491117273e-05,1336.4987655439277,42742.331808194154,3845,0.051889568197615525,0.051806172561118864,3807.851570816933
89,234.36181632499998,1322,43464,0.8677489292852631,2.0591071360762734e-05,1336.910484948671,42922.15334435579,3849,0.05203363732864743,0.05186297322724996,3822.380756075942
90,234.89788249999998,1321,43434,0.8672589311593729,2.0593615538179967e-05,1337.0154250379142,43077.41230831873,3841,0.05189591115621352,0.05192944347112079,3835.6958028493677
91,235.433843325,1331,43512,0.8668004592010585,2.0549547407625674e-05,1336.5698883326659,43214.02930983631,3858,0.05192870629907008,0.05201256568611456,3848.019909850658
92,235.9696988,1337,43730,0.8665578153052318,2.0441059026377745e-05,1336.046252463224,43317.09893768746,3867,0.051715879336735694,0.052118839627397114,3859.4097035039695
93,236.505448925,1333,43925,0.8666098942893835,2.0346776255855173e-05,1335.82346146003,43381.036852476005,3881,0.05184358589991898,0.05222535589787331,3868.683979252004
94,237.04109369999998,1339,44064,0.8664654382940954,2.0280057069493163e-05,1335.746109764635,43412.531382363435,3905,0.05203862644031946,0.05232743806796305,3875.871684522792
95,237.576633125,1337,44106,0.8658853313998153,2.02456295774934e-05,1335.3592833359503,43408.24809168867,3911,0.05211225053246801,0.052420213712061854,3880.249178916775
96,238.11206719999998,1336,44087,0.8659634438688039,2.0255981003223406e-05,1334.5212349090323,43371.76574780774,3904,0.05201735921627771,0.05252400120721243,3882.7769145393263
97,238.64739592499998,1347,44059,0.8653764850454776,2.0260734338019235e-05,1333.3587397222784,43311.85440213738,3914,0.05200930504569538,0.05265096019104532,3884.445468753465
98,239.1826193,1332,44000,0.865240351462597,2.0278437036247237e-05,1332.3322159052045,43242.99938843379,3939,0.052865885353496546,0.0527822915137339,3886.113252848235
99,239.71773732499997,1325,43932,0.8654717432609225,2.031290030419702e-05,1331.5563206414386,43184.65566603917,3946,0.05324011169730039,0.052914026855969375,3888.884300890093
100,240.25275,1325,43566,0.8654328986505,2.0487983207085533e-05,1330.9836689392484,43126.96165258474,3921,0.05318680440559404,0.053027569926376875,3890.9393191238014
101,240.787657325,1332,43184,0.8649750843904328,2.066747310499935e-05,1330.6418718430514,43063.72060522239,3906,0.05319807577226833,0.05314658302179532,3893.0731160387936
102,241.3224593,1341,42996,0.8650023747478218,2.076587143795035e-05,1330.5586763006834,43010.45498199197,3909,0.053326757852656496,0.0532859732609685,3897.0444404176023
103,241.85715592499997,1331,42719,0.864426750181391,2.088592708469583e-05,1330.4249926385396,42961.234977008855,3898,0.053614174826414195,0.05342755259490093,3901.443996466436
104,242.3917472,1320,42558,0.8640504083213235,2.0952771917195876e-05,1330.4449477904116,42906.96799474424,3907,0.05420482094978573,0.05356549711270389,3905.5839996375157
105,242.92623312499998,1322,42554,0.8638615542876957,2.095124064531664e-05,1331.0539310063396,42855.52950236616,3911,0.054242762030724784,0.053693144039957695,3909.883530770724
106,243.46061369999998,1328,42148,0.8647030136247108,2.1183317335245243e-05,1331.9245283018615,42822.87422138585,3892,0.054314025647568806,0.05380838619311578,3915.047792701912
107,243.994888925,1334,41952,0.863747888775786,2.126515064197612e-05,1332.3461460055464,42812.134770888675,3875,0.05403474778126132,0.05391460798231154,3920.734784479754
108,244.52905879999997,1329,42177,0.8628771528607923,2.1124097945084026e-05,1332.462320777342,42815.58637794658,3866,0.053591836486678174,0.054011920238902875,3926.653831343783
109,245.063123325,1329,42400,0.8633129275796555,2.1020012358590136e-05,1333.2203220910753,42837.93157262823,3883,0.053685111563839205,0.05410063022599755,3933.886633898768
110,245.59708249999997,1337,42302,0.8623491049005171,2.1050875256939266e-05,1334.3516953951137,42886.54855149525,3879,0.05351132490313961,0.05418157268373808,3942.6433214794592
111,246.130936325,1343,42039,0.862505803534046,2.1193871720415916e-05,1335.405649052048,42972.67002650034,3881,0.05379004642641559,0.05425408122840922,3953.291150422357
112,246.66468479999997,1344,42069,0.8631762817630669,2.1195243259989364e-05,1336.5594011189123,43103.260119141174,3909,0.05436579896187272,0.05433268158850746,3967.1729824004315
113,247.19832792499997,1326,42356,0.8629529675416884,2.103224390791344e-05,1337.7208317288919,43280.827357357215,3944,0.055062414550917385,0.054404946342384145,3983.6777050442065
114,247.7318657,1319,42883,0.8621360146885437,2.0742373560979302e-05,1338.1782146820733,43499.17001517505,3971,0.05500877468371711,0.0544729124275857,4001.7847969375653
115,248.265298125,1329,43056,0.8624878814902607,2.0669779315317677e-05,1338.3827719766894,43748.26618949382,3984,0.054878264082168435,0.054538968013153666,4021.525923576901
116,248.79862519999998,1336,42969,0.862427427307537,2.0714995972126365e-05,1338.8791365602588,44020.41867312879,3988,0.05493616931807912,0.05459606072056187,4042.6056535821094
117,249.33184692499998,1345,43248,0.8621956715984717,2.0575989108141937e-05,1339.7748986386753,44307.289134520885,3989,0.054402915201927284,0.05464591753382259,4064.713968606233
118,249.8649633,1349,43763,0.8614594306460737,2.031073302791705e-05,1340.9002695417532,44627.84418673044,4024,0.05433121084967811,0.054671676863933934,4087.837255656902
119,250.397974325,1345,44160,0.861591555373828,2.01235911566934e-05,1341.6690525266454,44989.60424924601,4071,0.054856909493146214,0.05468028112159312,4112.134544383712
120,250.93087999999997,1348,44764,0.861950076569216,1.98532816604297e-05,1342.2214093184186,45390.16061518861,4129,0.055211976297655,0.05468646616711478,4138.508505288829
