,x_(nm),baseline_dark,baseline_light,baseline_dark_smoothed,baseline_light_smoothed,raw_signal,calibrated_signal,calibrated_signal_smoothed,raw_signal_smoothed
0,186.23,1275,1285,1261.6415378923693,4413.4774593598195,1264,-1.1,,1254.6500248220545
1,186.775442325,1270,1280,1267.5631292865469,3334.059670957567,1251,-1.9,,1258.2435211272048
2,187.3207793,1281,1278,1273.1253878619657,2391.2479141890617,1249,10.666666666666666,,1261.8378657639469
3,187.86601092499998,1280,1287,1278.3379669139058,1580.2087945805652,1262,-2.5714285714285716,,1265.4285308188742
4,188.41113719999998,1269,1289,1283.210519737648,896.1089176583382,1276,0.35,,1269.0109883785794
5,188.956158125,1275,1292,1287.7526996284723,334.11488894864306,1274,-0.058823529411764705,,1272.5807105296558
6,189.50107369999998,1286,1298,1291.9741598816593,-110.60668602225905,1265,-1.75,,1276.1331693586963
7,190.045883925,1306,1304,1295.8845537924892,-442.88920172810776,1276,15.0,,1279.663836952294
8,190.59058879999998,1307,1306,1299.4935346562427,-667.5660526426391,1285,22.0,,1283.1681853970422
9,191.135188325,1298,1316,1302.8107557682,-789.4706332395945,1302,0.2222222222222222,,1286.6416867795335
10,191.67968249999998,1309,1325,1305.8458704236411,-813.436337992709,1318,0.5625,,1290.0798131863614
11,192.22407132499998,1314,1332,1308.608531917847,-744.2965613757251,1302,-0.6666666666666666,,1293.478036704119
12,192.7683548,1304,1329,1311.1083935460977,-586.8846978623797,1289,-0.6,,1296.831829419399
13,193.312532925,1287,1312,1313.3551086036737,-346.0341419264105,1283,-0.16,,1300.1366634187946
14,193.8566057,1291,1311,1315.3583303858552,-26.578288041558153,1299,0.4,,1303.3880107888988
15,194.400573125,1302,1333,1317.127712187923,366.64946931844133,1317,0.4838709677419355,,1306.5813436163048
16,194.9444352,1312,1338,1318.672907305157,828.8157356798492,1325,0.5,,1309.7121339876057
17,195.488191925,1321,1342,1320.003569032838,1355.087116568924,1324,0.14285714285714285,,1312.7758539893946
18,196.0318433,1341,1341,1321.129350666246,1940.6302175119336,1321,-inf,,1315.7679757082642
19,196.575389325,1339,1343,1322.0599055006614,2580.6116440351293,1314,-6.25,,1318.683971230808
20,197.11883,1331,1336,1322.804886831365,3270.1980016647803,1310,-4.2,,1321.5193126436188
21,197.662165325,1332,1329,1323.3739479536368,4004.5558959271466,1319,4.333333333333333,,1324.26947203329
22,198.2053953,1334,1331,1323.7767421627573,4778.851932348489,1310,8.0,,1326.929921486414
23,198.74851992499998,1324,1324,1324.0229227540067,5588.252716455075,1293,-inf,,1329.4961330895846
24,199.2915392,1327,1343,1324.1221430226658,6427.924853773149,1299,-1.75,,1331.9635789293943
25,199.83445312499998,1351,1367,1324.0840562639896,7293.034949828849,1330,-1.3125,-inf,1334.3277310924113
26,200.3772617,1349,2463,1323.9124102470923,8050.5873292711785,1336,-0.011669658886894075,-inf,1336.1600942263444
27,200.919964925,1325,6981,1323.0382568121336,8822.568869056888,1336,0.0019448373408769448,-inf,1337.199936578379
28,201.4625628,1315,12250,1322.3422048064258,9609.875603071234,1344,0.002652034750800183,-inf,1337.975446782461
29,202.005055325,1310,14414,1322.0086751681552,10411.867539468418,1350,0.0030525030525030525,-inf,1339.5868536093424
30,202.5474425,1312,15365,1321.285510430562,11226.096944437937,1357,0.0032021632391660143,-inf,1341.8105732858924
31,203.089724325,1315,16057,1320.145847018027,12049.82248748533,1363,0.003256003256003256,-inf,1343.3385354141399
32,203.63190079999998,1311,16738,1319.1999592289494,12881.334571564228,1366,0.0035651779347896546,-inf,1343.9980973521226
33,204.173971925,1315,17248,1319.3302906067836,13718.425332396844,1370,0.003451955061821377,-inf,1345.1651000022391
34,204.71593769999998,1325,17617,1319.6579084463722,14554.090556977228,1371,0.0028234716425239383,-inf,1346.9876101383693
35,205.257798125,1326,17846,1319.386056309291,15381.042311263833,1359,0.0019975786924939466,-inf,1349.3483431108032
36,205.7995532,1321,18181,1319.4139618111142,16191.901379419383,1351,0.0017793594306049821,-inf,1352.0074293868233
37,206.34120292499998,1309,18744,1319.8590455049693,16988.49183446931,1361,0.002982506452537998,-inf,1353.8768035515834
38,206.88274729999998,1304,19353,1319.712836077802,17770.19563296983,1359,0.0030472602360241564,,1354.7091893360857
39,207.424186325,1304,19677,1318.5863779473802,18527.919726380762,1355,0.002775812333315191,,1354.535844526464
40,207.96552,1301,19907,1317.4068042311012,19259.957892590624,1349,0.0025798129635601417,,1354.7747174341177
41,208.506748325,1306,20236,1316.3600761058888,19967.654420258288,1347,0.0021658742736397254,,1355.6821445559096
42,209.0478713,1328,20639,1315.400462071596,20645.518290334603,1346,0.0009321112319403449,,1356.687875150034
43,209.588888925,1335,21116,1314.7082380121608,21288.00187999687,1343,0.0004044284919872605,inf,1357.6072617726077
44,210.12980119999997,1319,21470,1315.0067045685946,21893.152098574858,1336,0.0008436305890526525,inf,1358.5517452263664
45,210.670608125,1299,21849,1315.4717660648914,22446.505198305305,1339,0.0019464720194647203,inf,1359.3568144238568
46,211.2113097,1289,22171,1315.7066524722845,22947.355500690403,1337,0.002298630399387032,inf,1360.1891549072197
47,211.751905925,1295,22315,1315.7192914901561,23391.642075697753,1342,0.002235965746907707,inf,1361.0448254773348
48,212.29239679999998,1308,22568,1315.6803325103374,23768.689030328656,1351,0.002022577610536218,inf,1361.1416566626388
49,212.83278232499998,1317,22944,1315.646469908693,24083.920134090906,1359,0.0019420169232903315,0.076528179270472,1360.3653310380494
50,213.37306249999997,1319,23365,1315.5030238510249,24340.398627375012,1371,0.0023587045268983037,0.03718457652086556,1359.5478040272453
51,213.91323732499998,1323,23885,1315.4282543205709,24529.601712382595,1372,0.002171793280737523,0.0022045713435890164,1358.8283766336463
52,214.45330679999998,1338,24472,1315.8372330063848,24687.587397222567,1383,0.001945188899455347,0.0017812844783347017,1358.0025595143456
53,214.993270925,1341,24958,1315.1601168769141,24929.874900903284,1386,0.0019054071219883981,0.0017217130180121891,1356.7348071303732
54,215.5331297,1325,25385,1313.8024190808148,25298.755169992044,1365,0.0016625103906899418,0.0016854707523570106,1355.3377426442014
55,216.07288312499998,1321,25785,1313.2625427529251,25716.127907766386,1351,0.001226291693917593,0.0016509807563043434,1354.595642030371
56,216.61253119999998,1335,26168,1313.448345375861,26147.024870324985,1366,0.0012483389038779045,0.0016271979626097033,1354.7999501687207
57,217.152073925,1336,26491,1314.1743640852314,26591.054451968954,1381,0.0017889087656529517,0.0016140192483893138,1355.8062243765169
58,217.69151129999997,1317,26754,1314.576411696729,27054.484880744232,1369,0.0020442662263631716,0.0016231084523284564,1357.0115291399318
59,218.230843325,1308,27117,1314.6485537611018,27537.028630319524,1348,0.0015498469526134295,0.00164019397661419,1358.125801263876
60,218.77006999999998,1315,27623,1314.90119821511,28032.929466125534,1338,0.0008742587805990573,0.0016538281304681007,1359.5759813359045
61,219.30919132499997,1312,28293,1315.6941946589702,28533.0563319662,1337,0.0009265779622697454,0.0016354139428746176,1360.818886044958
62,219.84820729999998,1299,28810,1316.4359555142557,29039.295703186377,1341,0.0015266620624477482,0.0016035573878352138,1361.6434120817878
63,220.38711792499998,1304,29218,1316.616593807309,29562.533624770098,1355,0.0018270401948842874,0.0016137438148464932,1362.7377517044292
64,220.9259232,1314,29801,1316.6669460236672,30111.08034157001,1376,0.0021764313546529996,0.0016245623408274316,1363.6025051529782
65,221.464623125,1313,30348,1316.6213730775078,30675.272690207574,1373,0.002066471499913897,0.0016325946214548516,1364.3193956827754
66,222.0032177,1314,30744,1316.167953974017,31242.92672540655,1365,0.0017329255861365954,0.0016384179190633923,1364.5561167863113
67,222.54170692499997,1318,31166,1315.9637137873765,31813.0923463719,1368,0.0016751541141785044,0.001620102456815588,1364.3186482139765
68,223.0800908,1317,31634,1316.8453192597544,32386.222677749724,1369,0.0017152092885179932,0.0015573827233874766,1364.203605970664
69,223.61836932499997,1304,32014,1317.776688033679,32958.802622935335,1363,0.0019211983067404755,0.0014843972354650276,1364.1014292509196
70,224.1565425,1297,32762,1318.275793336177,33525.76683503526,1356,0.0018750993167010964,0.0014182192404943294,1363.6936736958671
71,224.69461032499999,1296,33421,1318.1135473056893,34085.60248250179,1343,0.0014630350194552528,0.0013844440684568646,1363.3065528097773
72,225.23257279999999,1304,34101,1317.4075516999,34632.04122403612,1342,0.0011586425587706193,0.0013743266309878862,1362.9874742349507
73,225.77042992499997,1309,35060,1316.7289406328318,35156.07492808376,1350,0.0012147788213682557,0.0013596714443280427,1362.513737570474
74,226.30818169999998,1299,35726,1316.082198917277,35653.421436498444,1352,0.0015394893542858804,0.0013425655688174352,1362.0067951708727
75,226.84582812499997,1305,36159,1315.2359056830026,36125.2938684901,1347,0.0012050266827336891,0.0013306672041382833,1361.43495888919
76,227.3833692,1332,36720,1314.2562911956984,36566.769915512676,1367,0.0009890358313552616,0.001328565579019947,1360.8868830550825
77,227.92080492499997,1323,37058,1313.6379532945002,36974.103467801506,1375,0.0014551560095144816,0.0013161536735000502,1360.4163401209278
78,228.45813529999998,1344,37240,1313.7006047701848,37343.697592243734,1391,0.0013093380878092266,0.0012979052290790247,1360.476205576544
79,228.99536032499998,1366,37510,1314.0390269315021,37664.16999252459,1408,0.0011620185922974768,0.0012907939730014957,1361.0532061881095
80,229.53248,1340,37920,1314.0501710117758,37927.47303449609,1398,0.0015855658829961729,0.0012910494883749853,1361.4247661328423
81,230.069494325,1319,38525,1314.1294253550225,38135.54030668798,1377,0.0015588883513411814,0.001272888852128788,1361.3686153706503
82,230.60640329999998,1302,38970,1315.099775759335,38280.319667488904,1357,0.0014601253052989275,0.0012318612111022439,1361.6306371604983
83,231.143206925,1306,39218,1315.8679245282765,38350.9642120992,1353,0.0012397130196243934,0.0012133148439850449,1362.156787243173
84,231.67990519999998,1320,39279,1315.5809644612307,38344.52329611016,1361,0.001080112753233752,0.0012368000083205829,1362.4800788239563
85,232.216498125,1326,39321,1314.9315273278871,38266.40564905134,1352,0.0006843005658639295,0.001258469941213219,1362.261025164757
86,232.75298569999998,1311,39440,1314.1946589956485,38119.09239167292,1346,0.0009179364787956673,0.0012686523597759028,1361.5066026410302
87,233.289367925,1308,39509,1313.5794468730637,37903.807175699745,1349,0.00107327033323735,0.0012701299306497453,1360.5847244557938
88,233.8256448,1314,39353,1312.8786608982964,37614.718838478075,1347,0.0008675306921843371,0.0012924464721869723,1360.0015855398503
89,234.36181632499998,1311,38854,1312.2200729348092,37246.859974177634,1351,0.0010654449564499375,0.0013414521884855162,1359.9564429545142
90,234.89788249999998,1311,38229,1311.9368728623274,36815.232938457695,1350,0.0010563952543474727,0.0013865405101555497,1360.2318285804627
91,235.433843325,1319,37724,1311.7666764818885,36324.90785748192,1358,0.0010712814173877215,0.0014263970531042999,1360.444925139841
92,235.9696988,1313,37164,1311.7410133864616,35768.557113410716,1371,0.0016178070346712784,0.0014626416907023137,1360.5628893066398
93,236.505448925,1296,36483,1311.297447280774,35146.23311966228,1365,0.001960951487765368,0.0015132285368267902,1360.453215248337
94,237.04109369999998,1301,35829,1310.6724501120952,34465.52698815309,1359,0.001679796107506951,0.0015614140772410232,1360.035357539216
95,237.576633125,1299,35052,1309.9198849350812,33728.5213934624,1358,0.001747992771012947,0.0016163836532800061,1359.607375025456
96,238.11206719999998,1297,34155,1308.9334979274477,32946.96437065329,1355,0.0017651713433562604,0.0016857793112983479,1359.2077283743427
97,238.64739592499998,1298,33207,1308.1597771183694,32132.213209811613,1344,0.001441599548716663,0.001745075582401066,1358.6297537882817
98,239.1826193,1295,32151,1307.6361412489275,31298.7428707326,1347,0.0016852476017630283,0.0018116156186217315,1358.3886611248013
99,239.71773732499997,1301,31107,1307.1325964347755,30468.354119005508,1352,0.0017110648862645106,0.0018801227363520413,1358.2301297877382
100,240.25275,1315,29923,1306.340981675664,29641.307005820632,1360,0.001572986577181208,0.0019534190417679446,1357.9911436272362
101,240.787657325,1323,28744,1305.9471562209537,28818.696233209714,1373,0.001823420006564312,0.002005089601186399,1357.4735781104634
102,241.3224593,1317,27616,1306.4970441006342,28019.377245237178,1376,0.0022434313091752537,0.0020361565066459794,1357.2609572130477
103,241.85715592499997,1312,26541,1306.7612176945997,27240.680513714404,1375,0.002497126322882397,0.002081420195475705,1357.276223697
104,242.3917472,1310,25647,1307.4000543613422,26483.047384991227,1367,0.002342112832312939,0.002129882800763994,1357.7795193548857
105,242.92623312499998,1308,24889,1308.7137647511584,25762.101293347034,1356,0.0020355370849412663,0.002178835448270094,1359.0288115245837
106,243.46061369999998,1302,23958,1309.5393553647623,25101.056128111144,1355,0.0023393361581920905,0.0022424126979334914,1360.445128994968
107,243.994888925,1285,23209,1309.676413961786,24508.527871525504,1358,0.003329684364167123,0.0023048852573160287,1361.268907562999
108,244.52905879999997,1293,22740,1309.3071417245892,23984.038007655432,1367,0.003450366018557374,0.0023599026108451146,1361.426170468161
109,245.063123325,1311,22309,1309.4476885093409,23535.005843846524,1366,0.0026192970759119916,0.0023959874439863117,1361.4714942580545
110,245.59708249999997,1315,21798,1309.8050465468955,23174.292917166422,1364,0.0023922277010203583,0.0024323250339050575,1361.954313800966
111,246.130936325,1327,21381,1310.322702665947,22918.719903055124,1370,0.002144210631295502,0.0024540723283102543,1362.2847856123321
112,246.66468479999997,1323,21190,1310.5129674511063,22778.224421843774,1372,0.002466401570443449,0.0024709535278478034,1362.3082969036413
113,247.19832792499997,1313,21196,1310.7245237717477,22759.82588507058,1361,0.002414122617311271,0.0024886109791050523,1362.6606491653004
114,247.7318657,1315,21434,1310.8403814355681,22860.027565742843,1353,0.0018887618668919927,0.0024934316956552794,1362.6849758771173
115,248.265298125,1312,21528,1310.9044825477108,23070.25789938573,1363,0.002522754254056193,0.0024969246040411675,1362.85290720059
116,248.79862519999998,1307,21605,1311.4843597816232,23382.181204556848,1365,0.00285742437678589,0.0024934268742658645,1363.488097125617
117,249.33184692499998,1302,21983,1312.454121271125,23788.430224919703,1362,0.0029012136743871188,0.0024846491590674053,1364.4832725542785
118,249.8649633,1321,22633,1312.687920451174,24301.019049128623,1375,0.002533783783783784,0.0025092797612786422,1366.508754445148
119,250.397974325,1330,23359,1312.4190128881487,24926.23805748667,1392,0.0028144718325843207,0.0025371045467061483,1368.366576819381
120,250.93087999999997,1324,24229,1312.2932342748168,25666.28145597813,1393,0.003012442698100851,0.0025497567150663003,1370.0857777072831
121,251.46368032499998,1325,25443,1312.1120070669529,26511.662098801276,1390,0.0026950825109876442,0.002560296899003067,1371.9711431742244
122,251.99637529999998,1315,26610,1312.1289043919203,27439.35860381836,1385,0.0027673453251630758,0.0025649076742650695,1373.9816530385476
123,252.52896492499997,1312,27713,1312.1590976012797,28440.477745814766,1371,0.002234763834703231,0.002562892992897427,1376.0962649210367
124,253.06144919999997,1315,28778,1312.0679517089604,29509.63745498142,1374,0.0021483450460619744,0.0025806820357306324,1379.2728940632592
125,253.593828125,1313,29969,1312.3317402432422,30651.304423655667,1378,0.002268285873813512,0.0026064884549151304,1383.6062651475422
126,254.1261017,1302,31287,1312.9240299893293,31853.15067158878,1382,0.0026680006670001667,0.0026340473179110057,1388.885161611788
127,254.65826992499998,1295,32474,1313.817798817615,33092.38062017196,1394,0.0031752140864043108,0.0026644623724551395,1394.7300731613134
128,255.19033279999996,1295,33905,1314.3573580375296,34357.07907313803,1401,0.0032505366452008585,0.002716859484139602,1401.2639017871034
129,255.722290325,1305,35540,1314.687671294908,35645.1014745514,1411,0.0030962465313275887,0.0027906714115256697,1408.7535618020522
130,256.2541425,1312,37104,1315.2923962037391,36952.636435705645,1418,0.0029615556548949484,0.0028652641690981116,1416.9693537792202
131,256.78588932499997,1311,38368,1315.7983419782754,38260.521506715166,1419,0.002914429122702863,0.002947463946009484,1425.8875399216017
132,257.3175308,1318,39905,1316.0057079435296,39548.0627420772,1433,0.0029802783320807525,0.0030631106762517082,1436.0346553715553
133,257.849066925,1320,41718,1315.1550204987402,40804.98915037636,1449,0.0031932273874944305,0.0032431132019376824,1447.4362499716592
134,258.3804977,1306,43479,1314.089945412102,42031.64898412115,1462,0.0036990491546724205,0.0034611866199094053,1460.25667625538
135,258.91182312499996,1313,44929,1313.6725860155132,43228.13402341986,1470,0.003599596478356566,0.0036779617301425315,1474.381480894216
136,259.4430432,1317,46004,1313.4777684658518,44379.64359328552,1482,0.003692349005303556,0.0039033060670255653,1489.400507372732
137,259.974157925,1316,46985,1313.8850483589413,45484.91995288594,1503,0.004094681293656528,0.004143410014007439,1506.2039457292062
138,260.5051673,1313,47816,1314.7094837934924,46544.68667466897,1513,0.004300797797991527,0.0044165849241120485,1525.1185304310113
139,261.03607132499997,1324,48629,1315.2178305284126,47539.17130625744,1543,0.004629531761970194,0.004714701744443889,1544.9219914380553
140,261.56687,1326,49410,1315.6620535006205,48465.59267480484,1567,0.005012062224440563,0.005028422788080706,1565.7847516364739
141,262.097563325,1310,50322,1315.8295091621303,49322.09352420119,1577,0.005447645474577654,0.005395526635082503,1588.5715418242464
142,262.62815129999996,1305,51616,1315.8042990780966,50093.96760968442,1602,0.005903281588519409,0.005816201179059927,1613.319282429922
143,263.158633925,1326,52445,1315.5337380234862,50787.424879384744,1613,0.005614350828459086,0.006283367121520961,1639.952750911654
144,263.6890112,1328,52819,1315.7472422931185,51405.94987428835,1649,0.006234099162960517,0.006771354532160372,1668.3488414233298
145,264.219283125,1329,52938,1316.646401956984,51934.321230377944,1688,0.006956151058923831,0.007294447604734627,1698.4105189245186
146,264.7494497,1330,53002,1317.145529910052,52381.85476454632,1726,0.007663725034835114,0.00786869910845146,1730.0895150512702
147,265.27951092499995,1321,53477,1317.5747582051436,52770.04111078293,1768,0.008570442518598053,0.008480554623601548,1763.907449772328
148,265.8094668,1320,53968,1318.0221749076736,53091.87582957609,1806,0.009231119890594134,0.009132798418570265,1799.6180207931886
149,266.33931732499997,1319,54254,1318.1030147907966,53333.12697909249,1827,0.009596675167658449,0.009818289041734159,1836.3633377879103
150,266.8690625,1310,54032,1318.3462139572557,53484.681850097506,1848,0.010204468722734342,0.01055062234789343,1874.6307051121973
151,267.398702325,1311,53633,1318.6828693741395,53559.45344175304,1882,0.01091319139176637,0.011332649894694591,1914.6754173367094
152,267.9282368,1309,53551,1319.0016308409902,53573.52680694817,1941,0.012097546035756671,0.012159066560750368,1956.4712677523464
153,268.457665925,1316,53494,1319.1946816462182,53520.794219573596,1994,0.012993982138065852,0.01304214474385843,2000.1707852952118
154,268.9869897,1319,53105,1319.217739926134,53405.017055877935,2039,0.013903371567605145,0.013971169872294492,2045.1114408026972
155,269.516208125,1307,52536,1319.6308183650567,53237.698634169625,2088,0.015245271233090633,0.014938481373778937,2091.6012367210637
156,270.0453212,1306,52306,1320.2363586943957,53018.659267479554,2137,0.016294117647058824,0.015942744685241643,2139.1443747309836
