,x_(nm),baseline_dark,baseline_light,baseline_dark_smoothed,baseline_light_smoothed,raw_signal,calibrated_signal,calibrated_signal_smoothed,raw_signal_smoothed
0,186.23,1055,1071,1032.0825135730788,4109.536466287867,1044,-0.6875,,1019.7457968512344
1,186.775442325,1053,1079,1040.0399151307024,3063.6378142677922,1022,-1.1923076923076923,,1023.1835289058367
2,187.3207793,1050,1080,1047.46673994868,2149.9654817837563,1018,-1.0666666666666667,,1026.6971219385991
3,187.86601092499998,1046,1082,1054.3794520743302,1363.857957500053,1021,-0.6944444444444444,,1030.278404885579
4,188.41113719999998,1050,1081,1060.7945155549717,700.6537300809755,1019,-1.0,,1033.919206682834
5,188.956158125,1051,1078,1066.728394437923,155.69128819081743,1022,-1.0740740740740742,,1037.6113562664218
6,189.50107369999998,1059,1080,1072.197552770503,-275.690879506129,1032,-1.2857142857142858,,1041.3466825723997
7,190.045883925,1075,1103,1077.2184546000303,-598.1542843455691,1057,-0.6428571428571429,,1045.1170145368258
8,190.59058879999998,1083,1117,1081.8075639738233,-816.3604376632102,1057,-0.7647058823529411,,1048.914181095757
9,191.135188325,1083,1112,1085.9813449392009,-934.9708507947598,1045,-1.3103448275862069,,1052.7300111852512
10,191.67968249999998,1095,1114,1089.7562615434817,-958.6470350759228,1055,-2.1052631578947367,,1056.5563337413662
11,192.22407132499998,1089,1098,1093.1487778339845,-892.0505018424055,1062,-3.0,,1060.3849777001592
12,192.7683548,1082,1087,1096.1753578580276,-739.8427624299184,1071,-2.2,,1064.2077719976878
13,193.312532925,1087,1095,1098.85246566293,-506.6853281741651,1074,-1.625,,1068.0165455700098
14,193.8566057,1092,1105,1101.19656529601,-197.23971041085133,1081,-0.8461538461538461,,1071.8031273531828
15,194.400573125,1094,1123,1103.2241208045866,183.83257952431268,1087,-0.2413793103448276,,1075.559346283264
16,194.9444352,1101,1134,1104.9515962359783,631.870030295624,1087,-0.42424242424242425,,1079.2770312963114
17,195.488191925,1128,1132,1106.3954556375038,1142.2111305673748,1099,-7.25,,1082.948011328382
18,196.0318433,1136,1136,1107.5721630564817,1710.1943690038556,1119,-inf,,1086.5641153155343
19,196.575389325,1117,1137,1108.4981825402306,2331.158234269364,1099,-0.9,,1090.117172193825
20,197.11883,1107,1127,1109.1899781360694,3000.4412150281896,1070,-1.85,,1093.599010899312
21,197.662165325,1116,1124,1109.6640138913165,3713.381799944632,1079,-4.625,,1097.0014603680527
22,198.2053953,1114,1120,1109.9367538532906,4465.318477682973,1086,-4.666666666666667,,1100.316349536105
23,198.74851992499998,1109,1110,1110.0246620693104,5251.589736907519,1073,-36.0,,1103.5355073395262
24,199.2915392,1112,1113,1109.9442025866947,6067.5340662825565,1094,-18.0,,1106.6507627143742
25,199.83445312499998,1128,1141,1109.7118394527408,6908.489954472223,1124,-0.3076923076923077,-inf,1109.6539445966853
26,200.3772617,1122,2226,1110.1211805476696,7646.489863869931,1111,-0.009963768115942028,-inf,1112.5939885387904
27,200.919964925,1106,6632,1109.283970191829,8398.581190966792,1095,-0.0019905899384726746,-inf,1114.7157806518621
28,201.4625628,1095,11718,1107.8563500871833,9166.954902715628,1108,0.0012237597665442908,-inf,1116.3836553489107
29,202.005055325,1091,13819,1107.066751228772,9949.929307571894,1124,0.0025927089880578252,-inf,1118.3370857776856
30,202.5474425,1098,14763,1106.603252621782,10743.303223175857,1128,0.0021953896816684962,-inf,1120.2693379238274
31,203.089724325,1117,15461,1105.6086661079314,11547.253346621445,1132,0.001045733407696598,-inf,1121.49018097803
32,203.63190079999998,1127,16123,1104.4525357312525,12361.012208656812,1134,0.00046679114430514806,-inf,1122.5740786880576
33,204.173971925,1110,16604,1104.012299259305,13181.344696368862,1133,0.0014844455918420034,-inf,1124.5514734195351
34,204.71593769999998,1100,16943,1104.050624023173,13999.225033409322,1141,0.002587893706999937,-inf,1126.2683186481925
35,205.257798125,1104,17185,1103.7819429658446,14808.939500328148,1137,0.0020521111871152293,-inf,1127.3863281161305
36,205.7995532,1098,17526,1103.8230084486413,15605.537837776319,1130,0.0019478938397857316,-inf,1128.5588122041054
37,206.34120292499998,1091,18076,1104.009150830122,16388.831955423368,1132,0.00241389461289373,-inf,1129.9121384402602
38,206.88274729999998,1094,18698,1103.669777344879,17157.389816303552,1139,0.002556237218813906,inf,1131.3605064667158
39,207.424186325,1089,18999,1103.3277084418462,17901.045029332145,1135,0.0025683975432719153,inf,1132.495186753925
40,207.96552,1084,19230,1103.1574667602677,18618.616163446153,1134,0.002755428193541276,inf,1133.7008312758849
41,208.506748325,1092,19560,1103.182178531769,19313.426827334337,1142,0.002707385748321421,inf,1134.619357176811
42,209.0478713,1114,19925,1103.6720650524148,19981.0621305122,1156,0.0022327361650098347,inf,1135.331309882422
43,209.588888925,1108,20424,1104.7214659448473,20615.09062492882,1151,0.002226133775108718,inf,1136.2379895354152
44,210.12980119999997,1083,20777,1106.27452490428,21212.635937393417,1125,0.0021326292271757895,0.4157691684048485,1137.94831140001
45,210.670608125,1089,21124,1107.4075516999042,21760.017554191072,1113,0.001197903668579985,0.7107448813803684,1139.5361163333039
46,211.2113097,1094,21466,1108.0876124034307,22253.77850007885,1114,0.0009817396426467701,0.9845621236540212,1140.2784661034007
47,211.751905925,1104,21673,1109.019660694445,22693.22190763054,1116,0.0005834022072050173,1.1721466733425823,1140.9386622573338
48,212.29239679999998,1108,21979,1109.9973951844677,23066.716845228213,1133,0.0011978343155574721,1.3450159853615284,1141.5231375568876
49,212.83278232499998,1111,22336,1111.072187365491,23380.539038256364,1130,0.000895170789163722,0.48761726029264685,1141.5989716641154
50,213.37306249999997,1106,22721,1112.3868717298028,23636.31239665632,1138,0.0014804533888503355,0.009858282044315624,1142.1131395954387
51,213.91323732499998,1103,23213,1113.7727241839918,23826.18326575868,1149,0.0020805065581184982,0.0016512305170504281,1142.7446374776105
52,214.45330679999998,1140,23819,1115.4066230265478,23986.381707399487,1152,0.0005291238590766789,0.0012897367526399223,1142.517157806497
53,214.993270925,1158,24274,1116.1389838954235,24229.524519241193,1158,0.0,0.001111372336337631,1140.8813110149501
54,215.5331297,1131,24695,1115.8281954290937,24595.058687625526,1144,0.0005516890171447971,0.001034061250261264,1139.4071213390798
55,216.07288312499998,1118,25161,1116.0839203605756,25005.26261070418,1132,0.0005822900636359855,0.0010076857426942543,1139.401277492107
56,216.61253119999998,1131,25514,1117.3989444834324,25426.73836326935,1148,0.0006972070704999385,0.0009705251411056788,1140.2765408049795
57,217.152073925,1141,25770,1120.0184828648225,25862.81863688822,1154,0.000527833042348451,0.0008891750588297192,1141.6087567102093
58,217.69151129999997,1131,26019,1123.1657115676244,26319.469297152318,1142,0.00044198007071681133,0.0007808520627700991,1142.9501460961524
59,218.230843325,1121,26443,1125.290697411018,26795.10108949189,1145,0.0009477924334570729,0.0007118187298684614,1144.1457790663217
60,218.77006999999998,1130,26938,1126.8372783075276,27283.69784140019,1146,0.0006199628022318661,0.0006780699515198813,1145.3173571315099
61,219.30919132499997,1132,27514,1128.7586581802316,27776.060930031854,1146,0.0005306648472443333,0.000619054523833654,1146.1530498991829
62,219.84820729999998,1121,27976,1130.93759768056,28273.48528845446,1139,0.0006702662446471793,0.0005412023156913467,1146.5347572991243
63,220.38711792499998,1130,28366,1132.9884935105902,28788.734490021874,1137,0.0002570127772066383,0.00048043586682134135,1147.0651203877558
64,220.9259232,1134,29011,1134.8432580579183,29329.716664023537,1144,0.00035871865695734833,0.00043911661765323935,1147.935242021315
65,221.464623125,1133,29607,1136.398083761785,29884.49308025039,1143,0.00035119758376062375,0.00040646350593453095,1148.6785204647676
66,222.0032177,1128,29977,1137.1202745248825,30444.14247208259,1155,0.000935907657111165,0.0003916173204794397,1148.9753335296161
67,222.54170692499997,1118,30343,1137.8236879657304,31004.81888604439,1160,0.001437125748502994,0.00038722216644229815,1149.4887992932802
68,223.0800908,1128,30768,1139.54241319167,31567.26111576645,1165,0.0012483130904183536,0.00036238805891615933,1150.3968153298833
69,223.61836932499997,1125,31148,1141.0978504609172,32131.848580941194,1160,0.0011657729074376311,0.0003339588985203824,1150.9298738363048
70,224.1565425,1125,31866,1141.8247978436439,32691.482864843427,1144,0.0006180670765427279,0.0003095443109553893,1150.725452445107
71,224.69461032499999,1133,32595,1142.399510747673,33242.59034179646,1136,9.535312440404297e-05,0.00026239458359021337,1149.9390246664482
72,225.23257279999999,1137,33247,1142.6177263357954,33783.06102063403,1137,0.0,0.00021789527658639998,1148.9598178893982
73,225.77042992499997,1138,34202,1142.7176379985738,34300.80855738456,1137,-3.024437454633438e-05,0.00016355631599883393,1147.6973657387261
74,226.30818169999998,1133,34839,1142.6854968402235,34795.30963328661,1130,-8.900492493917997e-05,0.00013749360292590823,1147.001336383588
75,226.84582812499997,1130,35280,1142.1335251081346,35265.837233005725,1124,-0.00017569546120058566,0.00012805574994688684,1146.3428843235185
76,227.3833692,1149,35852,1140.9460689936132,35705.38687172914,1144,-0.0001440797625565513,0.00015027234274285738,1145.805431606583
77,227.92080492499997,1142,36185,1139.2435842261214,36110.81068653807,1159,0.0004851182832520047,0.0002050365478492214,1145.5108835987005
78,228.45813529999998,1163,36350,1138.5675100228552,36482.10847357741,1191,0.0007957484298178304,0.00021912464622326233,1145.3296563908364
79,228.99536032499998,1196,36600,1139.1125959817668,36806.46721329971,1202,0.00016947237600271157,0.00018111109776026773,1145.1119844163861
80,229.53248,1181,37081,1139.1769009490367,37075.348252507836,1172,-0.0002506963788300836,0.00014376732288917093,1144.4363405739437
81,230.069494325,1156,37770,1138.759292396182,37292.79727740081,1146,-0.0002731195717485115,0.00012040302298706962,1143.6320414958216
82,230.60640329999998,1132,38193,1138.7242293143454,37449.53915150894,1131,-2.6982542295135047e-05,0.00011465301995906724,1143.6257899385948
83,231.143206925,1125,38398,1139.0210197286242,37531.5544859446,1128,8.048721594720039e-05,0.00011882179387343958,1144.1452354526498
84,231.67990519999998,1144,38441,1138.581417472628,37535.352737320616,1127,-0.000455800734643537,0.00013578476990010283,1144.1732995084608
85,232.216498125,1155,38465,1137.2829962173332,37470.664046750055,1132,-0.0006164567140176896,0.00016756655966418692,1143.7153955921772
86,232.75298569999998,1147,38612,1135.935174069606,37340.17803347683,1137,-0.0002669157880688643,0.00020006172253063178,1143.1740469772599
87,233.289367925,1130,38733,1134.979048223041,37140.79163740898,1143,0.0003457170970401298,0.00023692791653766255,1143.083104940067
88,233.8256448,1121,38549,1134.369272237175,36866.12996896801,1137,0.0004274874425563749,0.0002528537555653118,1142.9448458628515
89,234.36181632499998,1123,38061,1134.0605902738237,36512.35830936078,1129,0.00016243434945043046,0.00025441341740996005,1142.7040023556374
90,234.89788249999998,1120,37495,1133.5541688373244,36096.91782373257,1125,0.0001374570446735395,0.0002689632185376255,1142.5195814174508
91,235.433843325,1135,36964,1132.6903893632707,35625.51967201907,1135,0.0,0.00027481930147672047,1141.783007542618
92,235.9696988,1137,36482,1131.7759632154532,35087.485152550915,1133,-0.00011317017965766021,0.00029358443449518603,1141.375433192123
93,236.505448925,1119,35838,1130.0440553579704,34482.79850053162,1133,0.00040323742043261616,0.00034376720285645107,1140.9135880767185
94,237.04109369999998,1112,35147,1127.7265849735904,33819.70074067298,1142,0.0008814455707360071,0.00042491257282168305,1140.4910190491073
95,237.576633125,1104,34378,1125.4418673129412,33099.96545788063,1140,0.0010819258279737933,0.0005216497930475502,1140.4351627443211
96,238.11206719999998,1101,33530,1123.2471630161285,32334.556501845404,1143,0.0012951370686731013,0.000609419851199697,1140.1439217196094
97,238.64739592499998,1105,32541,1121.2734829780754,31537.875376565113,1145,0.001272426517368622,0.0006774510768112617,1139.4662619764667
98,239.1826193,1108,31607,1119.4938277197457,30721.8688305505,1152,0.0014426702514836551,0.0007430262810980535,1138.8693741647382
99,239.71773732499997,1107,30571,1117.853677319963,29907.70617680977,1147,0.0013575889220743959,0.0008084199110074014,1138.3749122290208
100,240.25275,1120,29393,1116.1524383338026,29093.09255022708,1140,0.0007073886747073179,0.0008665322379483272,1137.5800810890175
101,240.787657325,1131,28274,1114.600172144308,28280.4556162082,1141,0.0003684191135836127,0.0009173600475608265,1136.6794038369849
102,241.3224593,1141,27197,1113.6549865228897,27490.412149765038,1143,7.675775253300584e-05,0.0009672931317833645,1136.3493850370119
103,241.85715592499997,1143,26098,1112.3383768601566,26718.682280458837,1143,0.0,0.0010404822030930599,1136.4393077985694
104,242.3917472,1123,25170,1111.5341004326046,25965.956624158596,1153,0.0012475568678005573,0.0011220446507977091,1137.3482072073896
105,242.92623312499998,1112,24411,1111.8845273958427,25248.658338806737,1158,0.0019743336623889436,0.0011856887909490088,1138.8027814899328
106,243.46061369999998,1110,23484,1112.4388094860374,24591.320505560245,1151,0.001832484133369089,0.001233584611219272,1139.944619357155
107,243.994888925,1104,22682,1112.3993521936864,24000.827108201316,1139,0.0016220224302530355,0.001280650596265531,1140.4965004869655
108,244.52905879999997,1098,22215,1111.6823710616109,23474.8778228268,1126,0.0013259459203485344,0.0013322480124708814,1140.5769326598345
109,245.063123325,1109,21855,1110.9620829463647,23021.90991868401,1128,0.0009158391979176709,0.0013792397145652223,1140.5245871933462
110,245.59708249999997,1125,21354,1110.797571858911,22653.45312464565,1146,0.0010381135992881506,0.0014050071914862843,1140.3140501483394
111,246.130936325,1135,20865,1111.3788534281423,22388.388887630095,1151,0.0008109477952356817,0.0014087200754873206,1140.0810437382281
112,246.66468479999997,1124,20644,1112.002446261502,22239.77691453898,1136,0.0006147540983606558,0.001414554588593576,1140.088223968811
113,247.19832792499997,1097,20659,1112.1752701080218,22210.756098665457,1128,0.0015847050403844187,0.0014396149539766872,1140.5413712654654
114,247.7318657,1088,20896,1111.715440893317,22293.856893700453,1125,0.0018679321486268175,0.0014668609738188428,1140.5946907064495
115,248.265298125,1092,20988,1111.1076808081511,22483.136650886343,1126,0.001708886208283072,0.0014788287414067573,1140.026070805659
116,248.79862519999998,1098,21034,1110.5436363224323,22773.246506149193,1142,0.0022070626003210273,0.001486671144502792,1139.477859068134
117,249.33184692499998,1089,21418,1110.6549412217505,23154.66203084963,1144,0.0027054946136061786,0.0014855008021929488,1139.3414573376301
118,249.8649633,1100,22034,1111.0532741398233,23641.99601349929,1155,0.0026273048629024552,0.0014804481500429,1139.5593331672071
119,250.397974325,1127,22696,1110.8426011913987,24241.678361910337,1166,0.0018081505864898698,0.001494941520598388,1140.2005934449035
120,250.93087999999997,1123,23541,1110.0631724387654,24956.481505809392,1156,0.0014720314033366045,0.0015303036753020918,1141.388026908855
121,251.46368032499998,1119,24716,1109.24974518107,25778.031212484504,1152,0.0013984828579904226,0.0015667935528545372,1142.7437767559636
122,251.99637529999998,1119,25835,1108.7170264331935,26681.748556025672,1159,0.0016183848519177862,0.0015997209007026988,1144.185553466648
123,252.52896492499997,1117,26870,1107.7056331966537,27654.690412013333,1159,0.0016308779559662953,0.0016448593718526173,1145.8506874447671
124,253.06144919999997,1114,27899,1106.6502752044,28695.68814695635,1157,0.0016053761433638231,0.0017156932725245042,1148.7802215225493
125,253.593828125,1111,29111,1105.9937937438915,29807.960134996825,1161,0.0017857142857142857,0.001793680965481052,1152.7272871412495
126,254.1261017,1101,30443,1105.8014904074626,30983.282520554792,1158,0.0019426078658578148,0.001859709626387199,1157.2779677908677
127,254.65826992499998,1098,31586,1106.1680898774391,32198.780855737907,1159,0.0020007871949619524,0.0019157890881412595,1162.3920813608238
128,255.19033279999996,1104,33007,1106.6845002151592,33440.802736188176,1164,0.0018807008745259067,0.001966217869588161,1167.8823755917238
129,255.722290325,1111,34605,1106.8497814219813,34706.45538970239,1179,0.0020302143667522542,0.0020242048369251042,1173.932999614918
130,256.2541425,1115,36087,1106.7464495231845,35993.37160524518,1189,0.002115978497083381,0.002123872450231194,1181.295272826089
131,256.78588932499997,1105,37309,1106.7609911889072,37286.18229178393,1186,0.0022373218428902884,0.0022633979984242386,1190.3602573104486
132,257.3175308,1108,38893,1106.5615982241743,38562.3472105816,1191,0.0021966388778615854,0.0024254179401242467,1200.4524224784022
133,257.849066925,1111,40723,1105.6830958798403,39807.10034202284,1200,0.0022467939008381298,0.0026089142832707557,1211.0327980248471
134,258.3804977,1105,42438,1104.449613807766,41022.25173843044,1209,0.0025161493237848692,0.0028077463305748868,1222.2676164805312
135,258.91182312499996,1107,43905,1103.942195746202,42210.62026319881,1222,0.0026870414505350717,0.0030036976784756156,1234.6331966748728
136,259.4430432,1097,44921,1103.829056150741,43356.197739472314,1239,0.003240233661920409,0.0032261322140202733,1248.799723663026
137,259.974157925,1091,45767,1104.1168089877249,44452.94738272582,1250,0.0035589578297072254,0.003465309296035271,1264.678022152233
138,260.5051673,1090,46618,1104.675485288434,45505.623751386476,1257,0.0036680723950096644,0.003712206828720865,1281.8605404425675
139,261.03607132499997,1102,47522,1104.3010713719239,46497.90473170311,1283,0.003899181387333046,0.004008172321924862,1299.7952161996625
140,261.56687,1110,48359,1103.3074588325685,47425.162676390406,1318,0.004402209570572922,0.0043461873689875806,1318.8336995175175
141,262.097563325,1107,49290,1101.8955582232682,48282.91662325216,1338,0.004794222028516281,0.004719319519442797,1339.3353643343874
142,262.62815129999996,1101,50600,1100.3213209812016,49055.870597294575,1362,0.005272833794622114,0.0051453893150334405,1361.6418718430507
143,263.158633925,1096,51474,1098.442139119778,49753.92470950548,1379,0.005617531462146175,0.005618484552823425,1385.4274162494924
144,263.6890112,1100,51867,1097.0017440938427,50377.571768329,1397,0.005850257056749463,0.006122713820256202,1411.0723232689033
145,264.219283125,1113,51908,1096.9699426940379,50911.803823415175,1423,0.006102962890048233,0.006640266505337131,1438.9094430224648
146,264.7494497,1106,51885,1096.9828988198844,51365.37334933875,1455,0.006872919907835917,0.00717084561785951,1467.460689936324
147,265.27951092499995,1090,52368,1097.1534123082986,51760.599266120546,1500,0.007995631654900737,0.007715522364692121,1497.195383813874
148,265.8094668,1107,52926,1097.4555482570177,52093.55713606097,1546,0.008471796059360466,0.008303213320114166,1529.1385988357313
149,266.33931732499997,1111,53328,1097.6620535006246,52343.59811094148,1566,0.008713637321178927,0.008930799645768192,1562.3655122426032
150,266.8690625,1095,53185,1097.8926136492123,52501.31683616742,1583,0.00936840084469188,0.009599993995218168,1596.671430836455
151,267.398702325,1090,52730,1098.3172665292323,52583.738612425106,1612,0.01010844306738962,0.010315638556733302,1632.6989059774542
152,267.9282368,1081,52653,1098.733085687084,52608.84418673028,1653,0.011091289847203908,0.011069905103775058,1670.4089333846428
153,268.457665925,1087,52673,1099.0401594599894,52567.43228612098,1707,0.01201876478114217,0.011859523927832811,1709.3454211873102
154,268.9869897,1106,52329,1099.4229993884135,52463.086298669405,1759,0.01274817952872733,0.012684117181480015,1749.3897483521375
155,269.516208125,1100,51746,1099.9838048426707,52307.71140909093,1801,0.01384117205702326,0.013560564972088109,1791.328999524304
