,x_(nm),baseline_dark,baseline_light,baseline_dark_smoothed,baseline_light_smoothed,raw_signal,calibrated_signal,calibrated_signal_smoothed,raw_signal_smoothed
0,186.23,1055,1071,1032.0825135730788,4109.536466287867,1026,-1.8125,,1020.2807801398251
1,186.775442325,1053,1079,1040.0399151307024,3063.6378142677922,1025,-1.0769230769230769,,1023.9035354828914
2,187.3207793,1050,1080,1047.46673994868,2149.9654817837563,1027,-0.7666666666666667,,1027.6253517565708
3,187.86601092499998,1046,1082,1054.3794520743302,1363.857957500053,1032,-0.3888888888888889,,1031.4368681096046
4,188.41113719999998,1050,1081,1060.7945155549717,700.6537300809755,1034,-0.5161290322580645,,1035.328723690734
5,188.956158125,1051,1078,1066.728394437923,155.69128819081743,1030,-0.7777777777777778,,1039.2915576487005
6,189.50107369999998,1059,1080,1072.197552770503,-275.690879506129,1025,-1.619047619047619,,1043.316009132245
7,190.045883925,1075,1103,1077.2184546000303,-598.1542843455691,1038,-1.3214285714285714,,1047.3927172901092
8,190.59058879999998,1083,1117,1081.8075639738233,-816.3604376632102,1066,-0.5,,1051.512321271034
9,191.135188325,1083,1112,1085.9813449392009,-934.9708507947598,1074,-0.3103448275862069,,1055.6654602237606
10,191.67968249999998,1095,1114,1089.7562615434817,-958.6470350759228,1074,-1.105263157894737,,1059.8427732970306
11,192.22407132499998,1089,1098,1093.1487778339845,-892.0505018424055,1060,-3.2222222222222223,,1064.034899639585
12,192.7683548,1082,1087,1096.1753578580276,-739.8427624299184,1055,-5.4,,1068.2324784001653
13,193.312532925,1087,1095,1098.85246566293,-506.6853281741651,1065,-2.75,,1072.4261487275126
14,193.8566057,1092,1105,1101.19656529601,-197.23971041085133,1082,-0.7692307692307693,,1076.606549770368
15,194.400573125,1094,1123,1103.2241208045866,183.83257952431268,1088,-0.20689655172413793,,1080.764320677473
16,194.9444352,1101,1134,1104.9515962359783,631.870030295624,1086,-0.45454545454545453,,1084.8901005975688
17,195.488191925,1128,1132,1106.3954556375038,1142.2111305673748,1092,-9.0,,1088.9745286793966
18,196.0318433,1136,1136,1107.5721630564817,1710.1943690038556,1105,-inf,,1093.0082440716976
19,196.575389325,1117,1137,1108.4981825402306,2331.158234269364,1108,-0.45,,1096.9818859232132
20,197.11883,1107,1127,1109.1899781360694,3000.4412150281896,1101,-0.3,,1100.8860933826845
21,197.662165325,1116,1124,1109.6640138913165,3713.381799944632,1100,-2.0,,1104.7115055988531
22,198.2053953,1114,1120,1109.9367538532906,4465.318477682973,1105,-1.5,,1108.44876172046
23,198.74851992499998,1109,1110,1110.0246620693104,5251.589736907519,1095,-14.0,,1112.0885008962464
24,199.2915392,1112,1113,1109.9442025866947,6067.5340662825565,1085,-27.0,,1115.6213622749535
25,199.83445312499998,1128,1141,1109.7118394527408,6908.489954472223,1111,-1.3076923076923077,-inf,1119.0379850053014
26,200.3772617,1122,2226,1110.1211805476696,7646.489863869931,1121,-0.0009057971014492754,-inf,1122.4186051778986
27,200.919964925,1106,6632,1109.283970191829,8398.581190966792,1120,0.0025334781035106766,-inf,1125.1622233798964
28,201.4625628,1095,11718,1107.8563500871833,9166.954902715628,1129,0.0032006024663466066,-inf,1127.5873066207398
29,202.005055325,1091,13819,1107.066751228772,9949.929307571894,1144,0.0041640477686989315,-inf,1130.3614577906417
30,202.5474425,1098,14763,1106.603252621782,10743.303223175857,1148,0.003658982802780827,-inf,1133.0062062560655
31,203.089724325,1117,15461,1105.6086661079314,11547.253346621445,1138,0.001464026770775237,-inf,1134.7805386305247
32,203.63190079999998,1127,16123,1104.4525357312525,12361.012208656812,1144,0.0011336356361696452,-inf,1135.3363383088868
33,204.173971925,1110,16604,1104.012299259305,13181.344696368862,1150,0.00258164450755131,-inf,1136.2287028018536
34,204.71593769999998,1100,16943,1104.050624023173,13999.225033409322,1161,0.0038502808811462477,-inf,1138.0606808761022
35,205.257798125,1104,17185,1103.7819429658446,14808.939500328148,1156,0.0032336297493936943,-inf,1139.8669052526452
36,205.7995532,1098,17526,1103.8230084486413,15605.537837776319,1145,0.0028609690771852934,-inf,1141.6021427438682
37,206.34120292499998,1091,18076,1104.009150830122,16388.831955423368,1146,0.0032381513099793936,-inf,1143.1325058324999
38,206.88274729999998,1094,18698,1103.669777344879,17157.389816303552,1149,0.0031242899341058852,inf,1144.4608258397477
39,207.424186325,1089,18999,1103.3277084418462,17901.045029332145,1139,0.0027917364600781687,inf,1145.6741715553926
40,207.96552,1084,19230,1103.1574667602677,18618.616163446153,1130,0.0025349939380579743,inf,1146.8324310856196
41,208.506748325,1092,19560,1103.182178531769,19313.426827334337,1140,0.002599090318388564,inf,1147.633694987407
42,209.0478713,1114,19925,1103.6720650524148,19981.0621305122,1157,0.002285896549891021,inf,1148.092097216223
43,209.588888925,1108,20424,1104.7214659448473,20615.09062492882,1157,0.0025367570925657486,inf,1148.359147432536
44,210.12980119999997,1083,20777,1106.27452490428,21212.635937393417,1146,0.0031989438407636845,0.17630011201699927,1149.0221296065374
45,210.670608125,1089,21124,1107.4075516999042,21760.017554191072,1146,0.0028450212128774644,0.38353875995166775,1149.9910530249613
46,211.2113097,1094,21466,1108.0876124034307,22253.77850007885,1138,0.0021598272138228943,0.6034843779917636,1150.7874470542713
47,211.751905925,1104,21673,1109.019660694445,22693.22190763054,1146,0.0020419077252175604,0.776963942782348,1151.4962513306991
48,212.29239679999998,1108,21979,1109.9973951844677,23066.716845228213,1154,0.0022040151406257486,0.9650040131545095,1152.0836938548782
49,212.83278232499998,1111,22336,1111.072187365491,23380.539038256364,1144,0.0015547703180212014,0.7487842152072274,1152.2571519173484
50,213.37306249999997,1106,22721,1112.3868717298028,23636.31239665632,1140,0.0015729817256534813,0.03673457361453835,1152.0873179460243
51,213.91323732499998,1103,23213,1113.7727241839918,23826.18326575868,1140,0.0016734509271822706,0.00177779266070076,1151.8179347210362
52,214.45330679999998,1140,23819,1115.4066230265478,23986.381707399487,1152,0.0005291238590766789,0.0015961539747503444,1151.508369385468
53,214.993270925,1158,24274,1116.1389838954235,24229.524519241193,1157,-4.326007959854646e-05,0.001502677994349869,1150.446080318898
54,215.5331297,1131,24695,1115.8281954290937,24595.058687625526,1141,0.00042437616703445936,0.001446640805999941,1149.400212915333
55,216.07288312499998,1118,25161,1116.0839203605756,25005.26261070418,1136,0.0007486586532462671,0.001429138749779099,1149.6102289972375
56,216.61253119999998,1131,25514,1117.3989444834324,25426.73836326935,1150,0.0007792314317352254,0.001397695980834866,1150.5663774943719
57,217.152073925,1141,25770,1120.0184828648225,25862.81863688822,1177,0.0014616915018880181,0.0012979997884155947,1151.7591791433333
58,217.69151129999997,1131,26019,1123.1657115676244,26319.469297152318,1171,0.0016072002571520412,0.0011823559147246467,1153.220435343927
59,218.230843325,1121,26443,1125.290697411018,26795.10108949189,1161,0.0015796540557617882,0.001128013747307234,1155.0539763074821
60,218.77006999999998,1130,26938,1126.8372783075276,27283.69784140019,1166,0.0013949163050216986,0.0011200155369407334,1157.1066615325153
61,219.30919132499997,1132,27514,1128.7586581802316,27776.060930031854,1165,0.0012508528542187855,0.0010804373394698106,1158.5594464200553
62,219.84820729999998,1121,27976,1130.93759768056,28273.48528845446,1151,0.0011171104077452988,0.001022191666449657,1159.6738091462778
63,220.38711792499998,1130,28366,1132.9884935105902,28788.734490021874,1141,0.0004038772213247173,0.0009774041686651806,1160.8245939885167
64,220.9259232,1134,29011,1134.8432580579183,29329.716664023537,1142,0.00028697492556587867,0.0009393786362705651,1161.9877686923603
65,221.464623125,1133,29607,1136.398083761785,29884.49308025039,1151,0.0006321556507691227,0.0009007223035824059,1162.8955355726973
66,222.0032177,1128,29977,1137.1202745248825,30444.14247208259,1163,0.0012132136295885472,0.0008764547051072419,1163.5220050284042
67,222.54170692499997,1118,30343,1137.8236879657304,31004.81888604439,1168,0.001710863986313088,0.0008664851336482506,1164.503726018687
68,223.0800908,1128,30768,1139.54241319167,31567.26111576645,1177,0.0016531713900134952,0.0008388054738199953,1165.939500328411
69,223.61836932499997,1125,31148,1141.0978504609172,32131.848580941194,1175,0.0016653898677680445,0.0008051370026379639,1166.8247298919343
70,224.1565425,1125,31866,1141.8247978436439,32691.482864843427,1166,0.0013337236914869393,0.0007852475440164854,1166.975650637591
71,224.69461032499999,1133,32595,1142.399510747673,33242.59034179646,1161,0.0008899624944377345,0.0007638025838151318,1166.9684704070082
72,225.23257279999999,1137,33247,1142.6177263357954,33783.06102063403,1157,0.0006228589224540642,0.0007384563633555457,1166.6731975808966
73,225.77042992499997,1138,34202,1142.7176379985738,34300.80855738456,1160,0.0006653762400193564,0.0007306212432231296,1166.7995877596097
74,226.30818169999998,1133,34839,1142.6854968402235,34795.30963328661,1157,0.0007120393995134397,0.000741960665483061,1167.2898366893703
75,226.84582812499997,1130,35280,1142.1335251081346,35265.837233005725,1148,0.000527086383601757,0.0007475036329022709,1167.224421844187
76,227.3833692,1149,35852,1140.9460689936132,35705.38687172914,1169,0.0005763190502262052,0.0007539372929219527,1166.5355500690619
77,227.92080492499997,1142,36185,1139.2435842261214,36110.81068653807,1178,0.0010273093057101275,0.0007751519817446375,1165.7054519920953
78,228.45813529999998,1163,36350,1138.5675100228552,36482.10847357741,1204,0.0011652030579475375,0.0007730735562788017,1165.4074610976243
79,228.99536032499998,1196,36600,1139.1125959817668,36806.46721329971,1218,0.0006213987120099423,0.0007335396659459851,1165.4214591496752
80,229.53248,1181,37081,1139.1769009490367,37075.348252507836,1197,0.0004456824512534819,0.0006908047573380593,1164.8544700899004
81,230.069494325,1156,37770,1138.759292396182,37292.79727740081,1180,0.0006554869721964276,0.0006563115820648791,1164.0108496228456
82,230.60640329999998,1132,38193,1138.7242293143454,37449.53915150894,1162,0.0008094762688540514,0.0006396781906448188,1163.9363972003673
83,231.143206925,1125,38398,1139.0210197286242,37531.5544859446,1156,0.0008317012314544039,0.0006405327911810445,1164.5946680558793
84,231.67990519999998,1144,38441,1138.581417472628,37535.352737320616,1146,5.3623615840416116e-05,0.0006592254450727759,1164.876667648169
85,232.216498125,1155,38465,1137.2829962173332,37470.664046750055,1147,-0.00021441972661484857,0.000701948550081138,1164.7847742870508
86,232.75298569999998,1147,38612,1135.935174069606,37340.17803347683,1162,0.0004003736821032964,0.000761584359738976,1164.940429001767
87,233.289367925,1130,38733,1134.979048223041,37140.79163740898,1162,0.000850995931175704,0.0008224069237743277,1165.4438379125013
88,233.8256448,1121,38549,1134.369272237175,36866.12996896801,1160,0.0010420006412311638,0.0008580798220090917,1165.704795125575
89,234.36181632499998,1123,38061,1134.0605902738237,36512.35830936078,1161,0.0010287508798527262,0.0008698410946592427,1165.5235452671413
90,234.89788249999998,1120,37495,1133.5541688373244,36096.91782373257,1157,0.0010171821305841925,0.0008783492208145309,1164.9403157489187
91,235.433843325,1135,36964,1132.6903893632707,35625.51967201907,1152,0.0004744759831421474,0.0008990161910264934,1164.2297673786272
92,235.9696988,1137,36482,1131.7759632154532,35087.485152550915,1143,0.0001697552694864903,0.0009470696507595804,1164.0403633151152
93,236.505448925,1119,35838,1130.0440553579704,34482.79850053162,1139,0.0005760534577608802,0.0010320572725629382,1163.7985458334056
94,237.04109369999998,1112,35147,1127.7265849735904,33819.70074067298,1155,0.0012634053180549435,0.0011589031191661188,1163.757661555166
95,237.576633125,1104,34378,1125.4418673129412,33099.96545788063,1168,0.0019234236941756326,0.0013107775967500718,1164.2073886158012
96,238.11206719999998,1101,33530,1123.2471630161285,32334.556501845404,1173,0.0022202349748681733,0.0014682690736243322,1164.696572968788
97,238.64739592499998,1105,32541,1121.2734829780754,31537.875376565113,1174,0.002194935742460873,0.0016238544865808551,1165.1762893836556
98,239.1826193,1108,31607,1119.4938277197457,30721.8688305505,1166,0.0019017016951375454,0.0017808257072095518,1165.7578654102927
99,239.71773732499997,1107,30571,1117.853677319963,29907.70617680977,1160,0.0017988053217485745,0.001927753564366622,1166.1697207184536
100,240.25275,1120,29393,1116.1524383338026,29093.09255022708,1167,0.0016623633855621972,0.0020549023892116017,1165.9078574825933
101,240.787657325,1131,28274,1114.600172144308,28280.4556162082,1183,0.001915779390634786,0.0021807762032230974,1165.6313166775922
102,241.3224593,1141,27197,1113.6549865228897,27490.412149765038,1188,0.0018038071845256371,0.002319924592133574,1166.3331672291336
103,241.85715592499997,1143,26098,1112.3383768601566,26718.682280458837,1183,0.0016028851933480265,0.002481636557339365,1167.3794196923827
104,242.3917472,1123,25170,1111.5341004326046,25965.956624158596,1179,0.0023287728198943735,0.0026467938158058566,1169.027429839838
105,242.92623312499998,1112,24411,1111.8845273958427,25248.658338806737,1183,0.003047341087600326,0.00279078214947211,1171.098371424019
106,243.46061369999998,1110,23484,1112.4388094860374,24591.320505560245,1186,0.0033967998569768483,0.0029252851725949415,1173.1179641667763
107,243.994888925,1104,22682,1112.3993521936864,24000.827108201316,1172,0.003151357864491612,0.0030587177416287045,1174.5342363360212
108,244.52905879999997,1098,22215,1111.6823710616109,23474.8778228268,1175,0.0036463512809584695,0.003192626476482168,1175.2825205553695
109,245.063123325,1109,21855,1110.9620829463647,23021.90991868401,1186,0.003711558854718982,0.0033276742241711466,1176.1225848829874
110,245.59708249999997,1125,21354,1110.797571858911,22653.45312464565,1193,0.003361510702456869,0.0034408489908285145,1176.8665654940994
111,246.130936325,1135,20865,1111.3788534281423,22388.388887630095,1194,0.0029903699949315765,0.0035333065177196223,1177.8345602391676
112,246.66468479999997,1124,20644,1112.002446261502,22239.77691453898,1185,0.003125,0.003634979105382807,1179.5214840653016
113,247.19832792499997,1097,20659,1112.1752701080218,22210.756098665457,1180,0.004242919946835702,0.003750240331431734,1181.6593580828333
114,247.7318657,1088,20896,1111.715440893317,22293.856893700453,1183,0.004796042003231017,0.003877029220265317,1184.0172823846292
115,248.265298125,1092,20988,1111.1076808081511,22483.136650886343,1196,0.005227181342983514,0.004015057594974663,1187.1566060386192
116,248.79862519999998,1098,21034,1110.5436363224323,22773.246506149193,1211,0.005668138041733548,0.004158066592568671,1190.9553783777433
117,249.33184692499998,1089,21418,1110.6549412217505,23154.66203084963,1210,0.005952088149933593,0.004277041418284378,1194.710276563433
118,249.8649633,1100,22034,1111.0532741398233,23641.99601349929,1224,0.0059233782363619,0.0043852774549568985,1198.8606536954173
119,250.397974325,1127,22696,1110.8426011913987,24241.678361910337,1237,0.005099911910612453,0.004507311272322377,1203.6865387664268
120,250.93087999999997,1123,23541,1110.0631724387654,24956.481505809392,1230,0.004772950307788384,0.004661192161964444,1210.136967994722
121,251.46368032499998,1119,24716,1109.24974518107,25778.031212484504,1229,0.004661609526634742,0.0048354455267832185,1218.0963328727485
122,251.99637529999998,1119,25835,1108.7170264331935,26681.748556025672,1232,0.004571937206667745,0.005015604030835843,1226.918435298624
123,252.52896492499997,1117,26870,1107.7056331966537,27654.690412013333,1231,0.004426668737622801,0.005223403572110647,1237.0734784479594
124,253.06144919999997,1114,27899,1106.6502752044,28695.68814695635,1247,0.00496546574575322,0.0054467235768643155,1248.6717705950068
125,253.593828125,1111,29111,1105.9937937438915,29807.960134996825,1278,0.0059642857142857145,0.0056670602118261745,1261.495956873291
126,254.1261017,1101,30443,1105.8014904074626,30983.282520554792,1282,0.006168631995092359,0.005891269180690971,1276.2534825250614
127,254.65826992499998,1098,31586,1106.1680898774391,32198.780855737907,1283,0.006067961165048544,0.006141426194002988,1293.520170332259
128,255.19033279999996,1104,33007,1106.6845002151592,33440.802736188176,1297,0.006049587813058333,0.006412719506001908,1312.785453804138
129,255.722290325,1111,34605,1106.8497814219813,34706.45538970239,1326,0.006419060130172568,0.006718716362986375,1334.7127001743838
130,256.2541425,1115,36087,1106.7464495231845,35993.37160524518,1358,0.0069484158755575886,0.007080809113192862,1359.897392919406
131,256.78588932499997,1105,37309,1106.7609911889072,37286.18229178393,1374,0.007430118218981328,0.007483429784284757,1387.4654918570934
132,257.3175308,1108,38893,1106.5615982241743,38562.3472105816,1413,0.008071986237925103,0.007934035037547858,1417.3838139028924
133,257.849066925,1111,40723,1105.6830958798403,39807.10034202284,1456,0.008709481975159042,0.00842991332236932,1449.1938209245686
134,258.3804977,1105,42438,1104.449613807766,41022.25173843044,1488,0.00926620375970774,0.008990436727960596,1483.6282815012512
135,258.91182312499996,1107,43905,1103.942195746202,42210.62026319881,1525,0.009766811533249218,0.009602768474609127,1521.8878343790057
136,259.4430432,1097,44921,1103.829056150741,43356.197739472314,1566,0.010701898503103323,0.010268421113417085,1563.9949942240746
137,259.974157925,1091,45767,1104.1168089877249,44452.94738272582,1611,0.011639358939923001,0.010981968112209932,1610.0224014133646
138,260.5051673,1090,46618,1104.675485288434,45505.623751386476,1657,0.012453874538745387,0.011753510210966281,1660.411945910408
139,261.03607132499997,1102,47522,1104.3010713719239,46497.90473170311,1715,0.013205514864282637,0.012623951847209366,1714.0717796552256
140,261.56687,1110,48359,1103.3074588325685,47425.162676390406,1763,0.01382039831530826,0.013593587654396222,1771.3602346598682
141,262.097563325,1107,49290,1101.8955582232682,48282.91662325216,1815,0.01469397920428367,0.014669869807337546,1833.3335975899442
142,262.62815129999996,1101,50600,1100.3213209812016,49055.870597294575,1897,0.016081132952180853,0.015852689817582147,1899.5538517293348
143,263.158633925,1096,51474,1098.442139119778,49753.92470950548,1968,0.017309142879828498,0.017149308510523473,1970.8429409499274
144,263.6890112,1100,51867,1097.0017440938427,50377.571768329,2041,0.01853566293064392,0.018551181493783063,2047.6312034247271
145,264.219283125,1113,51908,1096.9699426940379,50911.803823415175,2110,0.019627916133477703,0.020023316274470605,2128.5530816099617
146,264.7494497,1106,51885,1096.9828988198844,51365.37334933875,2190,0.021347407392819866,0.02158483757978598,2213.4423429748836
147,265.27951092499995,1090,52368,1097.1534123082986,51760.599266120546,2296,0.02351885798978119,0.023232047005066227,2303.7023262134603
148,265.8094668,1107,52926,1097.4555482570177,52093.55713606097,2394,0.024836449950790252,0.02498626078985653,2400.109515504269
149,266.33931732499997,1111,53328,1097.6620535006246,52343.59811094148,2488,0.026370722178600838,0.026866538893152297,2501.03698838021
150,266.8690625,1095,53185,1097.8926136492123,52501.31683616742,2600,0.02889230178537147,0.02888584724733263,2605.3666900722055
151,267.398702325,1090,52730,1098.3172665292323,52583.738612425106,2712,0.03140975987606506,0.03105955619807463,2714.9769417200328
152,267.9282368,1081,52653,1098.733085687084,52608.84418673028,2826,0.03383619018071822,0.03337130938944834,2831.088291920488
153,268.457665925,1087,52673,1099.0401594599894,52567.43228612098,2960,0.036308300701740785,0.03581532064957482,2952.6006025050965
154,268.9869897,1106,52329,1099.4229993884135,52463.086298669405,3072,0.03838119594713312,0.03842340720246794,3079.7628711861516
155,269.516208125,1100,51746,1099.9838048426707,52307.71140909093,3170,0.04087193460490463,0.04119534932734044,3212.8319780741867
