,x_(nm),baseline_dark,baseline_light,baseline_mirror,baseline_calibration,baseline_dark_smoothed,baseline_light_smoothed,raw_signal,calibrated_signal,calibrated_signal_smoothed,raw_signal_smoothed
0,186.23,1290,1283,0.3621226043733797,-0.05173180062476852,1270.0848028939026,4152.920291161127,1307,-0.8794406106210649,,1468.2791105798874
1,186.775442325,1281,1284,1.18800459154587,0.39600153051528997,1276.166890223271,3171.0240827696894,1292,4.356016835668189,,1409.0837094586261
2,187.3207793,1279,1281,1.908567993433533,0.9542839967167664,1281.840930250506,2311.9518673329567,1294,14.314259950751497,,1357.8410036099585
3,187.86601092499998,1281,1280,1.7279185264672412,-1.7279185264672412,1287.1198785529364,1571.518707186135,1301,-34.55837052934483,,1314.2550307399204
4,188.41113719999998,1281,1282,1.043047789334166,1.043047789334166,1292.0166907078903,945.5396646644322,1304,23.99009915468582,,1278.029828554547
5,188.956158125,1289,1293,0.840365554154959,0.21009138853873974,1296.5443222926965,429.82980210305413,1295,1.2605483312324384,,1248.869434759874
6,189.50107369999998,1291,1308,0.8202728553565946,0.04825134443274086,1300.7157288846836,20.204181837208125,1291,0.0,,1226.4778870619364
7,190.045883925,1304,1320,0.837733819880384,0.052358363742524,1304.5438660611799,-287.522133797901,1308,0.209433454970096,,1210.5592231667702
8,190.59058879999998,1316,1315,0.8116271105193998,-0.8116271105193998,1308.0416893995139,-497.53408246706476,1317,-0.8116271105193998,,1200.8174807804107
9,191.135188325,1317,1320,0.8262856362484797,0.2754285454161599,1311.222154477014,-614.0166018350765,1318,0.2754285454161599,,1196.9566976088936
10,191.67968249999998,1323,1328,0.8012221689422371,0.1602444337884474,1314.0982168710088,-641.1546295667304,1322,-0.1602444337884474,,1198.680911358254
11,192.22407132499998,1319,1322,0.7775424502505143,0.2591808167501714,1316.682832158827,-583.1331033268216,1317,-0.5183616335003428,,1205.6941597345276
12,192.7683548,1306,1306,0.7753865851703869,inf,1318.9889559177968,-444.1369607801398,1319,inf,,1217.7004804437497
13,193.312532925,1305,1302,0.7956261498651602,-0.2652087166217201,1321.0295437252469,-228.35113959148111,1318,-3.447713316082361,,1234.4039111919562
14,193.8566057,1307,1319,0.7908861747409445,0.06590718122841203,1322.8175511585057,60.039422574363016,1318,0.7249789935125324,,1255.5084896851822
15,194.400573125,1313,1332,0.7942231778648126,0.04180121988762171,1324.3659337949016,416.84978805259743,1330,0.7106207380895692,,1280.7182536294633
16,194.9444352,1322,1344,0.7947581770897779,0.036125371685898994,1325.6876472117633,837.8950191784306,1340,0.6502566903461819,,1309.7372407308353
17,195.488191925,1335,1352,0.7914877943554887,0.04655810555032286,1326.7956469864191,1318.990178287067,1359,1.1173945332077486,,1342.2694886953332
18,196.0318433,1345,1355,0.7911116722494277,0.07911116722494277,1327.7028886961978,1855.9503277137155,1365,1.5822233444988554,,1378.0190352289926
19,196.575389325,1336,1361,0.7900325230816138,0.03160130092326455,1328.4223279184275,2444.590529793578,1347,0.34761431015591004,,1416.689918037849
20,197.11883,1323,1351,0.798472358442206,0.0285168699443645,1328.966920230437,3080.725846861868,1334,0.3136855693880095,,1457.9861748279382
21,197.662165325,1328,1342,0.7981102791346143,0.05700787708104388,1329.3496212095545,3760.171341253785,1341,0.7411024020535704,,1501.6118433052952
22,198.2053953,1342,1342,0.8040599544843242,inf,1329.583386433109,4478.742075304546,1349,inf,,1547.2709611759562
23,198.74851992499998,1332,1339,0.8074165803696804,0.1153452257670972,1329.6811714784283,5232.253111349344,1337,0.576726128835486,,1594.6675661459553
24,199.2915392,1330,1345,0.8060625325032217,0.053737502166881446,1329.6559319228415,6016.519511723392,1351,1.1284875455045102,,1643.5056959213298
25,199.83445312499998,1365,1367,0.8122546130835153,0.40612730654175766,1329.5206233436518,6827.35633876179,1376,4.467400371959334,inf,1693.4893882080812
26,200.3772617,1362,2374,0.8144257223941842,0.0008047685003895101,1330.061858705721,7550.307934494408,1436,0.05955286902882374,inf,1736.5535799225015
27,200.919964925,1325,6520,0.8150182986479615,0.00015688513929700896,1329.877596321522,8290.862035380032,1692,0.05757684612200229,inf,1779.3817300504768
28,201.4625628,1315,11318,0.8232603193402961,8.230134153157014e-05,1329.1405467847262,9049.118711635425,1977,0.05448348809389943,inf,1822.6526308636314
29,202.005055325,1321,13388,0.8194894939197722,6.7911617959706e-05,1328.8537905728074,9823.550431493164,2101,0.05297106200857068,inf,1867.031846700909
30,202.5474425,1318,14340,0.8269202298982968,6.350178389635209e-05,1328.6889397268087,10611.582844458335,2160,0.053468502040728456,inf,1911.8525447914647
31,203.089724325,1309,14989,0.8298864771900701,6.066421616886478e-05,1328.4011868898247,11414.127205599003,2191,0.053505838660938734,inf,1956.0937960089325
32,203.63190079999998,1314,15627,0.8293789756785952,5.7945851720715096e-05,1327.6712043307637,12233.09886973634,2227,0.05290456262101288,,2000.2859860925116
33,204.173971925,1327,16141,0.8303112569560028,5.6049092544620145e-05,1327.453622958592,13064.808240276992,2259,0.05223775425158598,,2045.4631135472666
34,204.71593769999998,1331,16537,0.832804584655424,5.4768156297213204e-05,1327.8142879793172,13897.510906249026,2278,0.0518654440134609,,2090.2978096898732
35,205.257798125,1335,16914,0.8371769300637781,5.3737526802989805e-05,1327.9977802441474,14725.73319893967,2288,0.05121186304324928,,2133.743142539994
36,205.7995532,1332,17362,0.8381556767340916,5.2286692247915885e-05,1328.0296722462315,15546.279032367365,2298,0.050508944711486745,,2175.7204013680525
37,206.34120292499998,1328,17971,0.840625124319978,5.050923056660326e-05,1327.88511631065,16359.664227955018,2325,0.050357702874903446,,2216.428163718275
38,206.88274729999998,1311,18607,0.8415937915656597,4.86582904466732e-05,1327.1202971754485,17164.479942920236,2345,0.05031267232186009,inf,2255.606242496956
39,207.424186325,1301,18968,0.8431564976534377,4.7724939019269696e-05,1326.1311241477467,17951.302090647237,2344,0.04977711139709829,inf,2292.8904844956405
40,207.96552,1312,19242,0.844165982526256,4.708120371033218e-05,1325.1583274819109,18717.707830301573,2357,0.04919985787729712,inf,2328.631158123582
41,208.506748325,1318,19619,0.8476484869242688,4.631705846261236e-05,1324.3842669142873,19466.26238419859,2375,0.04895713079498126,inf,2362.7149652313306
42,209.0478713,1330,20138,0.8491768105118729,4.5149766615901366e-05,1323.945842487913,20192.29749258155,2399,0.04826510051239856,-inf,2394.9071779654796
43,209.588888925,1332,20739,0.8502736512177026,4.3812730005549675e-05,1323.9469523658267,20890.406713628443,2420,0.047668250246038046,-inf,2425.2412059162825
44,210.12980119999997,1323,21185,0.8513731200582484,4.286442050439273e-05,1324.3559310516407,21556.50352216317,2422,0.04710799813432761,-inf,2453.909986636117
45,210.670608125,1327,21649,0.8534308197221572,4.1995414807703825e-05,1324.527984778792,22177.41230831913,2429,0.046278947118089615,-inf,2479.353983102628
46,211.2113097,1331,22088,0.8557212941711507,4.122567298603607e-05,1324.5028426464673,22751.547192461458,2433,0.04543069163061175,-inf,2500.9640988470383
47,211.751905925,1327,22335,0.8575135521308375,4.0818428795260734e-05,1324.4831819520007,23274.60046660129,2441,0.04547172967792046,-inf,2519.527192008831
48,212.29239679999998,1323,22665,0.8580327959771828,4.0203954454933126e-05,1324.675326734442,23734.182246483044,2462,0.045792304124168834,-0.06023688779744559,2534.313687739198
49,212.83278232499998,1327,23140,0.8587529108532552,3.936885851800556e-05,1324.6977507984072,24137.29536342793,2467,0.04488049871052634,-0.07616238176012245,2545.524609843889
50,213.37306249999997,1330,23646,0.8598387128136875,3.853014486528444e-05,1325.1411356995375,24488.275929239146,2486,0.04454084746426881,-0.07242887075317751,2553.5180185281174
51,213.91323732499998,1325,24173,0.8611437003932625,3.7690112937380185e-05,1326.3004371559691,24778.10503069105,2521,0.045077375073106704,0.044725911047896326,2556.949285374478
52,214.45330679999998,1336,24826,0.8624756676121401,3.671671637344147e-05,1327.2839928423948,25037.79213572173,2557,0.044831110691972036,0.04452270962687767,2558.420960837116
53,214.993270925,1349,25412,0.8630074298534857,3.586449860173236e-05,1326.8558517746467,25374.974019796107,2582,0.044220926775936,0.044310533279039596,2564.3193730321823
54,215.5331297,1331,25979,0.8629495266956824,3.501093503309325e-05,1325.6154839293952,25826.641826541443,2583,0.04383369066143274,0.044032807957446934,2576.144397381545
55,216.07288312499998,1319,26559,0.8648478670709356,3.426497096160601e-05,1324.8677433237192,26320.233821830112,2595,0.04372210294700927,0.04374620458705544,2591.5282565856037
56,216.61253119999998,1323,27027,0.8650803831098881,3.365547708955369e-05,1324.9657523386459,26823.41402976233,2623,0.0437521202164198,0.04348992484634885,2608.4235656526266
57,217.152073925,1334,27313,0.8652291434094919,3.3304944124465604e-05,1325.4555029558737,27334.61505356807,2630,0.04316320758530742,0.043252286898618,2626.104079367546
58,217.69151129999997,1325,27578,0.8680312398394996,3.3064078004018576e-05,1325.9046637522679,27855.72660762365,2613,0.042586532469175924,0.04302863024343886,2644.729574848757
59,218.230843325,1313,28100,0.868212549145114,3.2411712739206107e-05,1326.5840675892746,28387.31880676745,2625,0.04252416711383841,0.04281467766841859,2664.3416158915884
60,218.77006999999998,1316,28724,0.868144571802742,3.1674860325552466e-05,1327.4009603841282,28925.60565358163,2660,0.042571012277542515,0.0426173751486765,2684.702779224846
61,219.30919132499997,1325,29375,0.8681762475955156,3.095102486971535e-05,1328.3205282112588,29465.386781126977,2698,0.04249575714611918,0.04242682513802749,2705.253346621616
62,219.84820729999998,1326,29894,0.868951283960652,3.0416944972019462e-05,1329.040023556567,30007.937144668613,2715,0.042249136566135034,0.04223853576244832,2725.7674919023693
63,220.38711792499998,1332,30322,0.8691522224557424,2.998110460350957e-05,1329.5385852453935,30562.696255860246,2741,0.04224337638634498,0.042060481352823816,2746.6252463248925
64,220.9259232,1336,30961,0.8692686507714266,2.9342401713803428e-05,1329.4784932840805,31135.50560601539,2771,0.04210634645930792,0.04189048691709961,2767.6322000497785
65,221.464623125,1335,31602,0.8701622824311823,2.874953852153112e-05,1329.2333914697697,31718.727898706045,2783,0.04162933177917706,0.04171829123087022,2788.5321524835813
66,222.0032177,1332,32027,0.86932404321908,2.8321356677604822e-05,1328.9525470565331,32302.453396452303,2804,0.0416890370294343,0.041557446666682415,2809.7281478628647
67,222.54170692499997,1328,32460,0.8705973257298546,2.7964709165163003e-05,1329.142222926881,32881.2964506551,2826,0.04189113432941418,0.04140310598985877,2830.9340641916606
68,223.0800908,1326,32923,0.8704844215444587,2.75495908328151e-05,1329.7999275181517,33460.25774083154,2852,0.04204067561087584,0.04123981769285871,2852.1293800538538
69,223.61836932499997,1324,33367,0.8703398065724872,2.7161620527805985e-05,1330.6111350200204,34040.30933882922,2852,0.04150295616648755,0.04107167938764954,2873.2649890144185
70,224.1565425,1325,34134,0.8697053263836744,2.650813271918298e-05,1331.4182427687801,34617.98439375684,2870,0.040955065051137704,0.0409034237596286,2894.2095857210256
71,224.69461032499999,1318,34830,0.8700422735223692,2.596211128916117e-05,1332.066796529907,35195.83709710232,2904,0.041175908504609615,0.040720199010864634,2914.4699993204267
72,225.23257279999999,1321,35553,0.8700397124616915,2.5415976643540884e-05,1332.6070805680506,35769.73752519808,2924,0.04074181055959604,0.04052088303319862,2933.876939454971
73,225.77042992499997,1329,36616,0.8700678242154535,2.4656894159760068e-05,1333.309542684973,36331.40530929284,2965,0.04033867884536747,0.04033286913263868,2953.032435615699
74,226.30818169999998,1327,37343,0.8699872642519537,2.4155577083850336e-05,1333.703639946519,36882.091598903,2971,0.03971176872584995,0.04017394256820907,2972.2603909487752
75,226.84582812499997,1310,37769,0.8700242014773532,2.3863084601260407e-05,1333.6048155110846,37428.32721012862,2980,0.03985135128410488,0.0400056038796439,2990.6940587555205
76,227.3833692,1323,38337,0.8696880407569096,2.3496191731693673e-05,1333.0456182472735,37965.22838569318,3044,0.04043694597024481,0.039848163052285134,3008.7502548188504
77,227.92080492499997,1334,38753,0.87010037851645,2.3252903030985594e-05,1332.2336406260363,38486.58773698085,3058,0.04008800482541917,0.03972173435721608,3026.7378196561062
78,228.45813529999998,1352,38947,0.8693067287349536,2.312293466511381e-05,1331.924279145595,38998.146843642375,3073,0.03979457055866086,0.03960874083734883,3045.2514213231875
79,228.99536032499998,1376,39211,0.8691277262341458,2.2971527057860335e-05,1332.3297922942509,39494.36046116483,3114,0.03992451402656126,0.03949624211829381,3063.9024439964073
80,229.53248,1373,39740,0.86926662631248,2.2656622261643598e-05,1332.399556048809,39966.31937303146,3109,0.039331896246213284,0.03938320661027577,3081.1644657862553
81,230.069494325,1346,40462,0.8686441253792921,2.2206875073609065e-05,1331.851185757296,40423.371288137125,3119,0.03937278950550887,0.039284632370594354,3097.771750209459
82,230.60640329999998,1322,41015,0.868302707705708,2.1875461862436903e-05,1331.4709279938133,40858.52966092018,3129,0.03952895958542348,0.039209743924211275,3114.4339622640914
83,231.143206925,1324,41523,0.8687016218294412,2.1610030643285684e-05,1331.4374957529926,41249.09531359634,3140,0.0392438156482068,0.03914119861363159,3129.745135790105
84,231.67990519999998,1327,41887,0.8683284847277679,2.140849321320927e-05,1331.0558789553302,41595.18709370461,3147,0.03896345764804087,0.03906173815283039,3142.2282271398517
85,232.216498125,1326,42221,0.8683608504247778,2.1233912469122824e-05,1330.4598745158185,41915.91216109004,3148,0.038688188518741784,0.03899402831112012,3153.7997236629894
86,232.75298569999998,1327,42667,0.868249886800152,2.1002658122887082e-05,1329.6512038777519,42214.07916374016,3156,0.03841386170676048,0.03895499449209364,3165.443769960754
87,233.289367925,1332,43111,0.867778574191436,2.0770688005731013e-05,1328.9859339962147,42484.11193911445,3169,0.03815575386652787,0.03892790141192043,3176.508686493404
88,233.8256448,1337,43371,0.8676471171202086,2.0641554863210938e-05,1328.805454257149,42714.26770708201,3186,0.03816623494207702,0.03891528059882114,3186.8179120704276
89,234.36181632499998,1339,43417,0.8677489292852631,2.062239006809409e-05,1328.88912546148,42894.91981698257,3204,0.038460757476995476,0.03893813110815387,3196.5567057010876
90,234.89788249999998,1332,43352,0.8672589311593729,2.063919398285038e-05,1328.9378241862528,43048.214568845586,3207,0.03869848871784446,0.038979367306450345,3205.8837572764337
91,235.433843325,1341,43410,0.8668004592010585,2.0604256321782275e-05,1328.8622165847216,43182.917936985286,3205,0.03840633378380216,0.039029811259953126,3214.7927925886715
92,235.9696988,1329,43662,0.8665578153052318,2.047003083422464e-05,1328.5283245373369,43283.78957620701,3215,0.038606478153347674,0.03910431557450685,3222.9718679924185
93,236.505448925,1323,43831,0.8666098942893835,2.03869834922693e-05,1327.838546739425,43345.044621621404,3232,0.03891875148674209,0.03920820923155391,3230.0747015786833
94,237.04109369999998,1318,44011,0.8664654382940954,2.029525773063723e-05,1326.8812657138074,43371.21581462691,3249,0.039190142677860494,0.0393446493731627,3236.7079435547184
95,237.576633125,1305,44104,0.8658853313998153,2.023143838407008e-05,1325.715961856415,43361.778590680726,3249,0.03932991621863224,0.03949860976850705,3242.4476205575947
96,238.11206719999998,1309,44045,0.8659634438688039,2.0263090693298482e-05,1324.3583546625944,43321.020362861294,3267,0.03967513157747843,0.03966628909347142,3247.320279054956
97,238.64739592499998,1313,44008,0.8653764850454776,2.0268801617179472e-05,1322.905343269358,43257.617748985554,3286,0.0399903455906951,0.03985491271507519,3251.771795510595
98,239.1826193,1299,43949,0.865240351462597,2.0286995344961243e-05,1321.872658497336,43185.13873473835,3285,0.04028997275509303,0.04004150366779389,3256.224376543008
99,239.71773732499997,1299,43801,0.8654717432609225,2.0363082755186165e-05,1321.0364447665606,43123.378921379044,3282,0.04037999310353416,0.04023489002940835,3261.9323200977874
100,240.25275,1315,43444,0.8654328986505,2.0542450536459445e-05,1320.3242655552533,43064.19354911693,3289,0.04055079735897094,0.0404310144701762,3268.159301456369
101,240.787657325,1333,43161,0.8649750843904328,2.067933165320916e-05,1319.5102040816075,43000.289270424335,3293,0.040531490040289955,0.04064378611284097,3274.8350585516596
102,241.3224593,1338,43019,0.8650023747478218,2.075291799015911e-05,1318.9568733153385,42946.67707082751,3303,0.04077948385066265,0.04088356902507836,3283.4573376519793
103,241.85715592499997,1334,42738,0.864426750181391,2.08778560086318e-05,1318.7106842736844,42897.004145053426,3295,0.04094147563292696,0.04113631701181267,3293.3335975899163
104,242.3917472,1326,42512,0.8640504083213235,2.0979226152608254e-05,1318.9348796121967,42840.34673491957,3288,0.04116124171141739,0.041404880283566065,3304.3534394889393
105,242.92623312499998,1321,42530,0.8638615542876957,2.096293417184828e-05,1320.0454143921465,42788.256766856866,3307,0.041632387265290685,0.04167755243919758,3316.6904799655076
106,243.46061369999998,1329,42199,0.8647030136247108,2.1157401850372176e-05,1321.9168044576068,42758.3343903591,3310,0.04191281306558728,0.04193201517529943,3330.0283132120135
107,243.994888925,1326,41915,0.863747888775786,2.1280344151759983e-05,1323.0161045550044,42748.198622844546,3303,0.042071240388029486,0.042202838391447985,3344.5069650501073
108,244.52905879999997,1325,42175,0.8628771528607923,2.1123063717522453e-05,1323.0778273573328,42749.73639266945,3322,0.04218275824389234,0.04249137220662438,3359.5902964958927
109,245.063123325,1328,42397,0.8633129275796555,2.102103600232914e-05,1323.4950735010732,42770.067000384246,3367,0.04286189240874912,0.04277281668482597,3375.6015991301533
110,245.59708249999997,1321,42194,0.8623491049005171,2.1098258138637172e-05,1324.1512378536065,42819.296133546944,3375,0.04333582221676075,0.04304461855722739,3392.874651747426
111,246.130936325,1328,41959,0.862505803534046,2.1227776907633236e-05,1324.6118824888192,42909.265306121626,3372,0.04338957599920234,0.04330999951741024,3411.8582753855603
112,246.66468479999997,1331,41938,0.8631762817630669,2.125683457933526e-05,1324.809078348295,43044.92289746005,3398,0.043937877075485986,0.04356604846323318,3432.5463996918857
113,247.19832792499997,1314,42227,0.8629529675416884,2.1092390378160693e-05,1325.3428163718065,43226.18362816741,3413,0.044272927403759293,0.04380280407104238,3454.9645518584125
114,247.7318657,1308,42837,0.8621360146885437,2.0759854913158124e-05,1326.24879385714,43446.59387528513,3433,0.04411469169046101,0.044026113204480265,3479.0742032661456
115,248.265298125,1311,42991,0.8624878814902607,2.0693087367808558e-05,1327.3285465129193,43698.67978889585,3456,0.044386672403949355,0.04424854240537585,3505.0342703118313
116,248.79862519999998,1313,42888,0.862427427307537,2.0743894823993675e-05,1328.1687240933854,43972.62406849448,3463,0.0445993738715864,0.044477435516399044,3532.4407800855515
117,249.33184692499998,1318,43115,0.8621956715984717,2.0628171198853308e-05,1329.300301252551,44260.23182857964,3491,0.044825016015108236,0.04467808286789235,3559.50447348744
118,249.8649633,1326,43616,0.8614594306460737,2.0370286844314817e-05,1330.648848218507,44580.95639765255,3538,0.045059074499624374,0.0448575115450993,3587.2866429590017
119,250.397974325,1334,44091,0.861591555373828,2.015088886904666e-05,1331.873519218983,44943.0098076958,3576,0.04517829284440261,0.04502226101909192,3616.197943328206
120,250.93087999999997,1341,44671,0.861950076569216,1.9892685819737272e-05,1332.3462819089646,45347.61269790849,3606,0.045056933381704925,0.04517587304809697,3645.9425808058377
