,x_(nm),baseline_dark,baseline_light,baseline_mirror,baseline_calibration,baseline_dark_smoothed,baseline_light_smoothed,raw_signal,calibrated_signal,calibrated_signal_smoothed,raw_signal_smoothed
0,186.23,1267,1293,0.3621226043733797,0.013927792475899219,1248.919728317064,4170.697815975293,1288,0.2924836419938836,,1509.647337083518
1,186.775442325,1262,1294,1.18800459154587,0.037125143485808434,1256.2958346376765,3184.1988964461834,1283,0.7796280132019772,,1430.314849913517
2,187.3207793,1259,1287,1.908567993433533,0.06816314262262617,1263.1408020586073,2321.0121990289463,1273,0.9542839967167663,,1361.3381253291502
3,187.86601092499998,1263,1288,1.7279185264672412,0.06911674105868965,1269.4735362456543,1576.9257729765045,1269,0.4147004463521379,,1302.3505492892198
4,188.41113719999998,1269,1295,1.043047789334166,0.0401172226666987,1275.3129428646155,947.7276675417797,1271,0.0802344453333974,,1252.9855077525278
5,188.956158125,1271,1295,0.840365554154959,0.03501523142312329,1280.677927581289,429.2059319776931,1281,0.3501523142312329,,1212.8763866778763
6,189.50107369999998,1280,1296,0.8202728553565946,0.05126705345978716,1285.5873960614726,17.148615537166734,1283,0.15380116037936148,,1181.6565720240678
7,190.045883925,1296,1309,0.837733819880384,0.06444106306772185,1290.0602539709644,-292.65623252687783,1292,-0.2577642522708874,,1158.9594497499043
8,190.59058879999998,1294,1313,0.8116271105193998,0.04271721634312631,1294.1154069755626,-504.42056296151986,1297,0.12815164902937892,,1144.4184058141877
9,191.135188325,1301,1318,0.8262856362484797,0.04860503742638116,1297.771760741065,-622.3563265138373,1305,0.19442014970552465,,1137.6668261757204
10,191.67968249999998,1310,1326,0.8012221689422371,0.05007638555888982,1301.0482209332695,-650.6754739309072,1306,-0.20030554223555927,,1138.3380967933049
11,192.22407132499998,1305,1309,0.7775424502505143,0.19438561256262857,1303.9636932179744,-593.5899559598092,1301,-0.7775424502505143,,1146.0656036257426
12,192.7683548,1295,1293,0.7753865851703869,-0.38769329258519347,1306.5370832609776,-455.31172334762414,1298,-1.1630798777555804,,1160.4827326318364
13,193.312532925,1295,1295,0.7956261498651602,inf,1308.787296728077,-240.05272684142528,1298,inf,,1181.2228697703881
14,193.8566057,1302,1311,0.7908861747409445,0.08787624163788271,1310.7332392850708,47.97508281170758,1303,0.08787624163788271,,1207.9194010001997
15,194.400573125,1304,1329,0.7942231778648126,0.031768927114592505,1312.3938165977568,404.55975486469106,1308,0.12707570845837002,,1240.2057122800738
16,194.9444352,1303,1339,0.7947581770897779,0.02207661603027161,1313.7879343319332,825.4893385704536,1315,0.2649193923632593,,1277.7151895688123
17,195.488191925,1315,1349,0.7914877943554887,0.02327905277516143,1314.934498153398,1306.5518831819131,1327,0.27934863330193715,,1320.0812188252173
18,196.0318433,1326,1350,0.7911116722494277,0.03296298634372615,1315.852413727949,1843.5354379519931,1343,0.5603707678433446,,1366.937186008091
19,196.575389325,1323,1331,0.7900325230816138,0.09875406538520172,1316.5605867213842,2432.2280521336115,1340,1.6788191115484292,,1417.916477076236
20,197.11883,1312,1320,0.798472358442206,0.09980904480527575,1317.077922799502,3068.417774979694,1319,0.6986633136369302,,1472.652477988454
21,197.662165325,1319,1333,0.7981102791346143,0.05700787708104388,1317.4233276281,3747.8926557431623,1319,0.0,,1530.778574703547
22,198.2053953,1329,1333,0.8040599544843242,0.20101498862108105,1317.6157068729765,4466.440743676935,1330,0.20101498862108105,,1591.9281531803174
23,198.74851992499998,1321,1321,0.8074165803696804,inf,1317.6739661999293,5219.8500880339325,1330,inf,,1655.734599377568
24,199.2915392,1326,1321,0.8060625325032217,-0.16121250650064434,1317.6170112747564,6003.90873806708,1331,-0.8060625325032217,,1721.8312992540996
25,199.83445312499998,1345,1347,0.8122546130835153,0.40612730654175766,1317.4637477632311,6814.4047430291575,1350,2.0306365327087885,inf,1789.851638768681
26,200.3772617,1339,2374,0.8144257223941842,0.0007868847559364099,1318.2349090579373,7535.777163695524,1436,0.07632782132583175,inf,1850.0485401707501
27,200.919964925,1318,6531,0.8150182986479615,0.0001563434296274624,1318.4988787967764,8274.409567600467,1785,0.07301238163602494,inf,1910.7715237037844
28,201.4625628,1310,11314,0.8232603193402961,8.229311468815435e-05,1318.5556864254881,9030.580647353107,2168,0.07060749240243644,inf,1972.0362182608512
29,202.005055325,1311,13329,0.8194894939197722,6.818850839738495e-05,1318.8800425830457,9803.105755509565,2336,0.06989322110731958,inf,2034.619764887048
30,202.5474425,1314,14254,0.8269202298982968,6.390419087312959e-05,1319.2325986998321,10589.65426170448,2412,0.07016680157869629,inf,2097.9878592946206
31,203.089724325,1310,14947,0.8298864771900701,6.085550173719074e-05,1319.0322317606037,11389.469727513428,2455,0.06967954948908339,inf,2162.183265759092
32,203.63190079999998,1308,15621,0.8293789756785952,5.7945851720715096e-05,1318.7662461210646,12203.438696232977,2500,0.0690714552510924,inf,2227.0625608733635
33,204.173971925,1308,16155,0.8303112569560028,5.592451383821667e-05,1319.0824480735437,13029.556773652608,2552,0.06957009521474153,,2293.198939953296
34,204.71593769999998,1315,16528,0.832804584655424,5.4742955673136396e-05,1319.2294955717884,13859.335454936427,2604,0.07056366986267282,,2359.273369725204
35,205.257798125,1324,16855,0.8371769300637781,5.3903607627569254e-05,1319.5124917891433,14686.205712473387,2636,0.07072153320737086,,2425.1361978753303
36,205.7995532,1314,17331,0.8381556767340916,5.2329130095154626e-05,1320.2439013340934,15504.886475344556,2656,0.07022569258769751,,2490.3248544700423
37,206.34120292499998,1314,17936,0.840625124319978,5.0573043215014925e-05,1320.9736800380276,16315.16045663517,2699,0.07004366485279567,,2553.9881311014487
38,206.88274729999998,1317,18589,0.8415937915656597,4.8725902707599567e-05,1320.903938934039,17114.525017553864,2748,0.06972676677457498,,2616.234025685696
39,207.424186325,1303,18955,0.8431564976534377,4.7765493862080084e-05,1320.4228408344218,17894.670026500822,2754,0.06930773159387821,inf,2676.5556637748923
40,207.96552,1296,19260,0.844165982526256,4.6992094329005564e-05,1320.2379442342722,18654.55333076591,2751,0.06837349724870309,inf,2735.4065097736684
41,208.506748325,1300,19645,0.8476484869242688,4.620596821609533e-05,1319.8993861695367,19396.839407460724,2804,0.06949377619700738,inf,2792.1601395274556
42,209.0478713,1326,20034,0.8491768105118729,4.539110597134236e-05,1319.5087091440098,20116.782554530862,2848,0.06908526328838306,inf,2846.923214568792
43,209.588888925,1330,20581,0.8502736512177026,4.416776537414693e-05,1319.527305261702,20809.35704092918,2881,0.06850420409530189,-inf,2899.677297333972
44,210.12980119999997,1328,21040,0.8513731200582484,4.319060065230562e-05,1319.922942761985,21470.784457178685,2907,0.06819795842999057,-inf,2950.1503997824984
45,210.670608125,1327,21541,0.8534308197221572,4.221978924122673e-05,1320.4367482841942,22086.746404221645,2931,0.06772054194292768,-inf,2996.8517746720754
46,211.2113097,1315,21989,0.8557212941711507,4.1391181879227564e-05,1320.815126050395,22656.226868105296,2963,0.06821266773696702,-inf,3038.936419850901
47,211.751905925,1324,22229,0.8575135521308375,4.1019543273419633e-05,1321.4820041223784,23176.34345058734,2985,0.06813346137715001,-inf,3076.4536909102676
48,212.29239679999998,1343,22583,0.8580327959771828,4.039702429271106e-05,1322.067158939022,23635.00534553399,3007,0.0672206484230712,-inf,3108.9062945932487
49,212.83278232499998,1342,23029,0.8587529108532552,3.959758891747384e-05,1322.1197762123463,24037.327051574888,3035,0.06703871803728322,0.05023695166094884,3136.693492491276
50,213.37306249999997,1335,23485,0.8598387128136875,3.88189035130333e-05,1322.724410518899,24384.410201816114,3072,0.06742843540213883,0.01588700424202193,3159.8612879113307
51,213.91323732499998,1326,24047,0.8611437003932625,3.79007834335312e-05,1323.8459987768438,24667.9128179569,3115,0.06780450156258733,0.06796877321566064,3177.695553693114
52,214.45330679999998,1333,24702,0.8624756676121401,3.6906828174596266e-05,1324.8468368479214,24921.803846066254,3179,0.0681300048103047,0.06802735585939557,3192.970350404251
53,214.993270925,1331,25280,0.8630074298534857,3.603521774827699e-05,1325.1008629866787,25253.17778432079,3233,0.06853898415722284,0.06800926150499831,3214.2413191691153
54,215.5331297,1318,25832,0.8629495266956824,3.5202314053017966e-05,1324.7981607737179,25699.01436046067,3258,0.06829248926285485,0.06793308527929988,3244.3407551699297
55,216.07288312499998,1314,26390,0.8648478670709356,3.448906791637166e-05,1325.1423135291598,26184.646832317332,3298,0.06842631074608137,0.06783541340186652,3278.2856236833723
56,216.61253119999998,1327,26877,0.8650803831098881,3.3858332019956484e-05,1326.069809055672,26677.169041200876,3338,0.06808910569213249,0.06773957477103165,3312.970169199692
57,217.152073925,1333,27220,0.8652291434094919,3.3423306810734806e-05,1327.2736868331986,27179.065437495236,3367,0.06798300605303459,0.06762939102273258,3348.335817345742
58,217.69151129999997,1326,27507,0.8680312398394996,3.315500706006263e-05,1328.2481596411894,27694.111554055053,3372,0.06783514444488814,0.06749863774027146,3384.2918072888883
59,218.230843325,1327,27944,0.868212549145114,3.261872296446309e-05,1328.889510521164,28223.725769552562,3407,0.06784694376608322,0.06736155909310337,3420.3899295566625
60,218.77006999999998,1327,28498,0.868144571802742,3.195114540512833e-05,1329.7801762214062,28760.536003079924,3442,0.06757667253184642,0.06724964396995477,3457.472898593333
61,219.30919132499997,1319,29144,0.8681762475955156,3.120130269885052e-05,1330.9414482773986,29297.648757615694,3477,0.06733241122411941,0.06714650446359369,3494.745181091238
62,219.84820729999998,1311,29673,0.868951283960652,3.063787052960482e-05,1331.73976760513,29839.42542299882,3526,0.06786288322307468,0.06702808032341939,3531.516229133095
63,220.38711792499998,1324,30167,0.8691522224557424,3.0133905018747787e-05,1332.4612335499985,30391.439851411676,3564,0.06749994724199504,0.06691360621995103,3569.1463906316553
64,220.9259232,1335,30853,0.8692686507714266,2.9448765186375315e-05,1333.110942490178,30962.226777502856,3613,0.06708428709456296,0.06679453935462662,3608.0937280571916
65,221.464623125,1330,31493,0.8701622824311823,2.884866500119956e-05,1333.1873881627869,31544.571428570824,3642,0.06669811348277338,0.06667023338683246,3647.2839701917806
66,222.0032177,1336,31921,0.86932404321908,2.8423215406868726e-05,1332.4336451561503,32129.681623592216,3682,0.06668086334451404,0.06652233051299204,3685.4552537995623
67,222.54170692499997,1336,32354,0.8705973257298546,2.8067487450185526e-05,1331.3506308183396,32714.077079887928,3710,0.06663221520674044,0.06640188722340618,3723.5193775622733
68,223.0800908,1334,32808,0.8704844215444587,2.7657254290667177e-05,1331.2608439602,33296.960497405875,3732,0.06632209578901989,0.06625038096147907,3761.0511223356543
69,223.61836932499997,1334,33226,0.8703398065724872,2.729022345956626e-05,1331.6006251556971,33880.32147953456,3756,0.06609692121906949,0.06606987116277596,3797.9879951980056
70,224.1565425,1329,33977,0.8697053263836744,2.6638854642969687e-05,1332.083150241203,34461.959228973945,3801,0.06585124867742106,0.06587587242597208,3834.4268273346333
71,224.69461032499999,1322,34657,0.8700422735223692,2.6099963207510698e-05,1332.3073229291463,35042.47774581464,3844,0.06582410720934198,0.06566994270080397,3870.3052617272583
72,225.23257279999999,1317,35336,0.8700397124616915,2.5575111333716204e-05,1332.1810233527115,35618.11434007497,3894,0.06590706190698666,0.0654824509914555,3905.9057283289926
73,225.77042992499997,1330,36314,0.8700678242154535,2.4870450040460025e-05,1332.4254683005022,36181.88011053408,3965,0.06553363585661216,0.0652982899946981,3941.0505334208397
74,226.30818169999998,1343,37000,0.8699872642519537,2.4398779040635884e-05,1332.969081972386,36734.834175178796,4003,0.06490075224809146,0.0651043817366211,3975.8823529411
75,226.84582812499997,1332,37502,0.8700242014773532,2.405375176879605e-05,1333.1283381276785,37281.90509411241,4026,0.06480080726513655,0.0649101657823982,4010.1064803279037
76,227.3833692,1338,38150,0.8696880407569096,2.3625123349910616e-05,1332.9415162291075,37819.16750096193,4080,0.0647800882254549,0.0647239315773951,4043.395592199066
77,227.92080492499997,1343,38574,0.87010037851645,2.3370319854864225e-05,1332.4774287073064,38342.750277468745,4104,0.06452545311928012,0.0645577250424675,4076.109832612213
78,228.45813529999998,1353,38793,0.8693067287349536,2.3218662626467778e-05,1332.6117692359708,38855.55545991907,4128,0.06443178878844809,0.06441510713157025,4109.381412942457
79,228.99536032499998,1369,39060,0.8691277262341458,2.3059290712216335e-05,1332.9673831796615,39352.336293007014,4148,0.0640817688892492,0.06429515588986341,4142.404063512118
80,229.53248,1352,39621,0.86926662631248,2.2714641780879562e-05,1332.9839860472237,39825.08213096483,4164,0.06387357268783334,0.0641825912031775,4173.750639878513
81,230.069494325,1336,40426,0.8686441253792921,2.2221645571227734e-05,1332.66003759992,40283.27778658556,4209,0.06384278772613729,0.06409375142529795,4204.691431289416
82,230.60640329999998,1320,41008,0.868302707705708,2.1878217791415744e-05,1332.451131395929,40718.36578404869,4227,0.06359997911964557,0.06402565845921865,4234.993635189844
83,231.143206925,1321,41480,0.8687016218294412,2.1631555114157254e-05,1332.3389657749638,41109.29790029141,4249,0.06333719337425243,0.06397968448883201,4262.979387981526
84,231.67990519999998,1328,41757,0.8683284847277679,2.147786204773227e-05,1331.8354889125203,41456.47679449059,4296,0.06374629455766938,0.06394646606953017,4287.758273120487
85,232.216498125,1323,42073,0.8683608504247778,2.1309468722080438e-05,1331.0788466329673,41776.0053002325,4318,0.06382185882263092,0.06393866352829758,4311.257219868997
86,232.75298569999998,1320,42524,0.868249886800152,2.1071980555289585e-05,1330.0364674171299,42070.23889555741,4347,0.06378488514086157,0.06394951614491214,4333.599605880005
87,233.289367925,1319,42943,0.867778574191436,2.0848034167582068e-05,1329.0916895059656,42333.44870778419,4386,0.0639409207919742,0.06396136349173412,4353.892772203138
88,233.8256448,1317,43286,0.8676471171202086,2.0673523722752713e-05,1328.048857278735,42555.79954245767,4400,0.06373647363724662,0.06401216730323972,4372.433667806661
89,234.36181632499998,1318,43357,0.8677489292852631,2.064152166524568e-05,1327.3039932954061,42728.929805883796,4402,0.06365845281561767,0.06408796571973986,4388.606333099193
90,234.89788249999998,1318,43296,0.8672589311593729,2.065984399350548e-05,1326.9391152687238,42874.88235294036,4389,0.06344638090405533,0.06417748571710795,4403.877913429438
91,235.433843325,1333,43350,0.8668004592010585,2.0629756032107444e-05,1326.3174703843545,43003.63500871964,4397,0.06320957248237721,0.06428828410112145,4418.703481392473
92,235.9696988,1344,43505,0.8665578153052318,2.0553540364441826e-05,1325.9646198101627,43097.82663253899,4426,0.06334601140320971,0.06442167686541007,4432.232779904329
93,236.505448925,1335,43609,0.8666098942893835,2.0499831912981585e-05,1325.4014586966607,43152.73360664939,4464,0.06414397405571938,0.06457054183095362,4443.0836938548155
94,237.04109369999998,1324,43737,0.8664654382940954,2.042924193747425e-05,1324.332918072864,43174.35932863629,4495,0.06478112618373084,0.06473615771618638,4451.8326122901135
95,237.576633125,1315,43790,0.8658853313998153,2.0385764129483584e-05,1323.0621305125571,43156.94817549579,4514,0.06521405945021798,0.06492590323461218,4458.665745543415
96,238.11206719999998,1320,43789,0.8659634438688039,2.039048350252664e-05,1321.773381050508,43106.26290516124,4529,0.06543306155960799,0.06512323983551857,4463.359102131332
97,238.64739592499998,1316,43784,0.8653764850454776,2.0377142437729056e-05,1320.4420032163555,43032.05483702833,4538,0.06565515293436303,0.06534505821692245,4467.204557294531
98,239.1826193,1307,43699,0.865240351462597,2.0410463093569472e-05,1319.1170128428478,42947.148044122485,4537,0.0659257957922294,0.06558608513774007,4471.241002061116
99,239.71773732499997,1313,43564,0.8654717432609225,2.0484053472365684e-05,1318.3132120772584,42870.47611497347,4522,0.06573332759282148,0.06582729058171267,4476.655915196182
100,240.25275,1326,43225,0.8654328986505,2.065521608273467e-05,1317.830732292892,42794.676663117265,4514,0.06584882887175814,0.06607176641173816,4482.74778590673
101,240.787657325,1333,42897,0.8649750843904328,2.0810679539756346e-05,1317.0659131576908,42715.15033183003,4521,0.06634444637274323,0.06631928000022712,4488.427756007978
102,241.3224593,1335,42706,0.8650023747478218,2.090842316472461e-05,1316.5858116831387,42646.64157738485,4519,0.06657241935648316,0.0665734114183255,4495.546739450411
103,241.85715592499997,1322,42441,0.864426750181391,2.102256256673049e-05,1316.1641713288836,42582.5685292977,4497,0.0667466361493693,0.06683088889290509,4503.327572538364
104,242.3917472,1311,42213,0.8640504083213235,2.1124893851677753e-05,1315.8365081881554,42510.741602300484,4491,0.06717716244833526,0.06709527049543498,4511.185326960886
105,242.92623312499998,1305,42186,0.8638615542876957,2.11311258112007e-05,1316.0594803959068,42440.631565833064,4503,0.06757734034421983,0.06735652476630545,4519.843824322094
106,243.46061369999998,1306,41785,0.8647030136247108,2.1361768166820098e-05,1316.1935038165957,42395.24421844129,4483,0.06786633746598746,0.0676100091890124,4530.045165235819
107,243.994888925,1310,41522,0.863747888775786,2.1479853993230528e-05,1316.3109923214317,42375.63077306314,4466,0.06779041920263555,0.06785405210581245,4541.8005843846095
108,244.52905879999997,1310,41798,0.8628771528607923,2.1311923356569657e-05,1316.1822011823344,42371.59586853528,4494,0.0678571639673178,0.06806556589996583,4552.975378830691
109,245.063123325,1314,42001,0.8633129275796555,2.1218397217284526e-05,1316.0640105098391,42388.04534643965,4529,0.06821714705356975,0.0682404358523659,4563.802894742716
110,245.59708249999997,1322,41765,0.8623491049005171,2.1322580048476055e-05,1315.9902829055898,42430.48066773798,4527,0.06833886905536575,0.0684111706421551,4576.47307979787
111,246.130936325,1332,41509,0.862505803534046,2.146765073385385e-05,1315.6146232077483,42514.69913248236,4518,0.06839593523805837,0.06856875414498784,4591.475956420215
112,246.66468479999997,1320,41534,0.8631762817630669,2.1464571586091087e-05,1315.0318920020586,42646.449138145,4539,0.06909445593562721,0.06871027306386347,4609.174749144853
113,247.19832792499997,1311,41826,0.8629529675416884,2.1299591942285286e-05,1314.5808738589524,42824.844752994715,4569,0.06939407054796547,0.06883323198128613,4629.680468413691
114,247.7318657,1309,42464,0.8621360146885437,2.0948512080878233e-05,1314.1383949806086,43048.40111893733,4617,0.06929767796354519,0.06892655584830466,4652.166821445469
115,248.265298125,1304,42649,0.8624878814902607,2.0860754178020575e-05,1313.4507916373846,43307.09796371295,4633,0.06944545065863049,0.06900260446836663,4676.408208566356
116,248.79862519999998,1305,42492,0.862427427307537,2.0939311610642604e-05,1312.7791795963412,43589.691838998915,4613,0.06926724280800574,0.0690531211083495,4701.361231284877
117,249.33184692499998,1299,42740,0.8621956715984717,2.0805378045859698e-05,1312.8723866905,43888.85227298383,4632,0.06934432502685037,0.06906014500998103,4726.159958322862
118,249.8649633,1304,43226,0.8614594306460737,2.054910144186999e-05,1313.3920587102511,44221.88844594357,4693,0.0696409047864974,0.0690322772113002,4752.076241817391
119,250.397974325,1319,43619,0.861591555373828,2.0368594689688605e-05,1313.619606333074,44595.73856712411,4736,0.06959948805466597,0.06900047481533865,4780.533534168292
120,250.93087999999997,1328,44276,0.861950076569216,2.0069620857064728e-05,1313.2506059027132,45011.337425535385,4780,0.06928033119858744,0.06895813515623153,4810.93891141353
