,x_(nm),baseline_dark,baseline_light,baseline_mirror,baseline_calibration,baseline_dark_smoothed,baseline_light_smoothed,raw_signal,calibrated_signal,calibrated_signal_smoothed,raw_signal_smoothed
0,186.23,1284,1279,0.3621226043733797,-0.07242452087467594,1265.3595909578137,4116.747295660722,1275,0.6518206878720834,,1415.1301466240434
1,186.775442325,1274,1275,1.18800459154587,1.18800459154587,1271.7438363831247,3143.7387771105805,1275,1.18800459154587,,1364.532197526649
2,187.3207793,1273,1268,1.908567993433533,-0.38171359868670657,1277.7240145792218,2292.4197322986533,1266,2.671995190806946,,1320.7518811814366
3,187.86601092499998,1283,1269,1.7279185264672412,-0.12342275189051723,1283.3127003680029,1558.6380101984264,1265,2.22160953402931,,1283.5418688391346
4,188.41113719999998,1289,1268,1.043047789334166,-0.049668942349246,1288.5224685713656,938.2414597833872,1269,0.9933788469849201,,1252.6548317504723
5,188.956158125,1289,1269,0.840365554154959,-0.04201827770774795,1293.365894011208,427.0779300270233,1271,0.7563289987394631,,1227.8434411661785
6,189.50107369999998,1287,1280,0.8202728553565946,-0.11718183647951351,1297.8555515094274,20.995269902820837,1261,3.0467277484673514,,1208.8603683369824
7,190.045883925,1297,1298,0.837733819880384,0.837733819880384,1302.004015887922,-284.1586716157317,1271,-21.781079316889983,,1195.4582845136126
8,190.59058879999998,1307,1311,0.8116271105193998,0.20290677762984996,1305.8238619685894,-492.53604555514903,1289,-3.652321997337299,,1187.3898609467983
9,191.135188325,1317,1322,0.8262856362484797,0.16525712724969593,1309.3276645733276,-608.2890029419423,1292,-4.1314281812423985,,1184.4077688872685
10,191.67968249999998,1323,1323,0.8012221689422371,inf,1312.5279985240343,-635.5696948026243,1298,-inf,,1186.264679585752
11,192.22407132499998,1307,1309,0.7775424502505143,0.38877122512525714,1315.437438642607,-578.530272163709,1295,-4.665254701503086,,1192.7132642929778
12,192.7683548,1297,1306,0.7753865851703869,0.08615406501893189,1318.0685597509441,-441.32288605170834,1297,0.0,,1203.506194259675
13,193.312532925,1295,1310,0.7956261498651602,0.05304174332434401,1320.4339366709428,-228.09968749313612,1292,-0.15912522997303202,,1218.3961407365725
14,193.8566057,1301,1317,0.7908861747409445,0.04943038592130903,1322.5461442245012,56.98717248549474,1288,-0.6425950169770174,,1237.1357749743993
15,194.400573125,1320,1331,0.7942231778648126,0.07220210707861932,1324.4177572335172,409.7855428576722,1293,-1.9494568911227217,,1259.4777682238841
16,194.9444352,1336,1329,0.7947581770897779,-0.11353688244139684,1326.0613505198883,826.1432725968843,1302,3.8602540030074928,,1285.1747917357561
17,195.488191925,1345,1329,0.7914877943554887,-0.04946798714721804,1327.4894989055126,1301.9082106766164,1316,1.4345716272693232,,1313.9795167607444
18,196.0318433,1349,1331,0.7911116722494277,-0.04395064845830154,1328.7147772122876,1832.9282060703572,1328,0.9229636176243323,,1345.644614549578
19,196.575389325,1345,1331,0.7900325230816138,-0.056430894505829554,1329.7497602621113,2415.0511077515916,1323,1.24147967912825,,1379.922756352985
20,197.11883,1338,1317,0.798472358442206,-0.03802249325915267,1330.6070228768815,3044.1247646938073,1320,0.6844048786647481,,1416.5666134216956
21,197.662165325,1334,1310,0.7981102791346143,-0.033254594963942265,1331.2991398784957,3715.9970258704934,1328,0.1995275697836536,,1455.328857006438
22,198.2053953,1336,1315,0.8040599544843242,-0.0382885692611583,1331.8386860888522,4426.515740255137,1337,-0.0382885692611583,,1495.9621583579412
23,198.74851992499998,1329,1314,0.8074165803696804,-0.053827772024645365,1332.2382363298484,5171.52875682122,1328,0.053827772024645365,,1538.2191887269346
24,199.2915392,1325,1319,0.8060625325032217,-0.13434375541720361,1332.5103654233822,5946.8839245422405,1321,0.5373750216688145,,1581.852619364147
25,199.83445312499998,1342,1343,0.8122546130835153,0.8122546130835153,1332.6676481913264,6748.429092391545,1338,-3.2490184523340613,-inf,1626.6151215202751
26,200.3772617,1348,2354,0.8144257223941842,0.0008095683125190697,1332.9443702008853,7461.72855557303,1402,0.043716688876029766,-inf,1666.478583886353
27,200.919964925,1329,6448,0.8150182986479615,0.0001592143580089786,1332.7069242791201,8192.780153570706,1629,0.04776430740269358,-inf,1706.5353009127853
28,201.4625628,1322,11168,0.8232603193402961,8.361368264679018e-05,1332.4390812928689,8941.530793449285,1887,0.047241730695436454,-inf,1746.8972343654107
29,202.005055325,1331,13194,0.8194894939197722,6.907944819352375e-05,1332.7700287661978,9706.196244535364,1994,0.04579967415230625,-inf,1787.8839384810185
30,202.5474425,1332,14129,0.8269202298982968,6.461828787202445e-05,1333.123672110328,10485.198600194595,2043,0.04594360267700938,inf,1828.98425785405
31,203.089724325,1330,14803,0.8298864771900701,6.15962649142782e-05,1333.1106706833423,11277.030238510282,2074,0.04582762109622298,inf,1870.1944324899412
32,203.63190079999998,1325,15461,0.8293789756785952,5.8671404617897226e-05,1332.5878502344078,12082.92081360823,2101,0.045529009983488244,inf,1911.1358354662254
33,204.173971925,1326,15995,0.8303112569560028,5.660312611330035e-05,1332.5137149199045,12902.22591678156,2126,0.04528250089064028,inf,1952.4637477632189
34,204.71593769999998,1340,16375,0.832804584655424,5.5391059837407644e-05,1333.069627851115,13723.23635869416,2137,0.04414667469041389,inf,1994.1835149153617
35,205.257798125,1346,16697,0.8371769300637781,5.453566087315342e-05,1333.7897574123729,14539.774875987852,2161,0.04444656361162004,inf,2035.1621780787398
36,205.7995532,1333,17146,0.8381556767340916,5.3004216577125885e-05,1334.333121927991,15349.18510045498,2186,0.04521259674028838,0.1379043093670091,2075.666991324792
37,206.34120292499998,1331,17744,0.840625124319978,5.12170306659342e-05,1334.4749824457826,16151.70320958541,2202,0.04461003371002869,-0.000906630783346774,2115.288047294349
38,206.88274729999998,1327,18396,0.8415937915656597,4.930539525254319e-05,1334.1225848829843,16944.435796959966,2227,0.04437485572728887,-0.016237585073047223,2153.655552787111
39,207.424186325,1324,18782,0.8431564976534377,4.829628237217537e-05,1333.3414573376263,17719.33694987395,2236,0.04404620952342394,-0.03751827470756104,2190.231149063357
40,207.96552,1336,19058,0.844165982526256,4.763378752546304e-05,1332.7498697591989,18475.824526036475,2239,0.04301331013549312,-0.07623950352028823,2224.9083104939664
41,208.506748325,1333,19439,0.8476484869242688,4.681588903812376e-05,1332.303109923189,19213.8795216196,2267,0.04372604036160759,-0.16201755089224606,2258.045210537002
42,209.0478713,1322,19903,0.8491768105118729,4.570135140799058e-05,1332.332374459192,19928.980882918826,2303,0.044833025731238756,-0.07218958575220409,2289.7544225236825
43,209.588888925,1314,20437,0.8502736512177026,4.4463402772457386e-05,1332.8611973090867,20615.07076037923,2316,0.0445523295780023,-0.039273002886551264,2319.848377086639
44,210.12980119999997,1317,20854,0.8513731200582484,4.357747453847819e-05,1333.559967383154,21269.585177466804,2319,0.043664629487555146,-0.014901159402710704,2348.7470384379717
45,210.670608125,1323,21312,0.8534308197221572,4.269502324889475e-05,1334.3603479127244,21879.906113388333,2328,0.04290849836513922,0.02507102363394826,2375.3106525628664
46,211.2113097,1326,21735,0.8557212941711507,4.1928624340788415e-05,1335.1156085075283,22444.49088314528,2342,0.04259948233024103,0.05435896288210386,2398.9563976533545
47,211.751905925,1334,21981,0.8575135521308375,4.153211372745859e-05,1335.5627081020832,22959.00421300552,2364,0.04277807713928235,0.07223420764629165,2419.607103218599
48,212.29239679999998,1337,22361,0.8580327959771828,4.081206221352658e-05,1336.0406351219476,23414.31595279576,2391,0.043015913573057014,0.08392745642231299,2436.5664454460566
49,212.83278232499998,1342,22858,0.8587529108532552,3.9912293681597656e-05,1336.647919545151,23816.033409589796,2407,0.042506592770901505,0.09873852908281194,2449.7694398513645
50,213.37306249999997,1351,23326,0.8598387128136875,3.9128041538734355e-05,1337.3410043262334,24163.532990554246,2410,0.04143659598951968,0.12990212869155332,2459.5756868784783
51,213.91323732499998,1352,23866,0.8611437003932625,3.824925381510449e-05,1337.5392874130528,24449.958798613312,2423,0.04096495083597691,0.04193885183892667,2465.8623524881177
52,214.45330679999998,1357,24493,0.8624756676121401,3.727851260425917e-05,1337.6484858093925,24709.09341094881,2461,0.04115547791510212,0.04168003991007847,2470.6051552696076
53,214.993270925,1353,25056,0.8630074298534857,3.640920684527215e-05,1336.7586581802275,25043.790550181853,2482,0.041105994528312255,0.04155011142079546,2479.1788941991417
54,215.5331297,1337,25614,0.8629495266956824,3.5545970535720325e-05,1335.397947858363,25489.36326983575,2493,0.0410911419392927,0.04142555381241534,2493.7805386304985
55,216.07288312499998,1336,26143,0.8648478670709356,3.486305748663424e-05,1334.8984348456106,25975.452875489318,2521,0.04131272312166158,0.04127563238617771,2511.4303155223874
56,216.61253119999998,1343,26634,0.8650803831098881,3.4205068329045433e-05,1335.104668282382,26468.756936736452,2543,0.04104608199485452,0.041137163698604935,2530.15015062624
57,217.152073925,1354,26982,0.8652291434094919,3.3761087225280625e-05,1335.7391560397489,26970.959840539475,2559,0.04068211010646315,0.041004848124903376,2549.749258193795
58,217.69151129999997,1345,27222,0.8680312398394996,3.354450824436757e-05,1336.2873904278435,27486.717343540666,2565,0.04092430005812843,0.040867287080891546,2569.722824978999
59,218.230843325,1329,27731,0.868212549145114,3.288434774430399e-05,1337.1372624521252,28015.384221612636,2573,0.04090812859391417,0.04071135932503648,2589.6589277219823
60,218.77006999999998,1329,28358,0.868144571802742,3.211900446937519e-05,1338.5692994178546,28551.172710593124,2600,0.04082325468057586,0.04052216377039897,2609.624204398691
61,219.30919132499997,1339,28981,0.8681762475955156,3.1407866565209305e-05,1339.9877460417872,29087.78536320132,2616,0.040107845603772285,0.04035618795671423,2630.1469795464855
62,219.84820729999998,1334,29477,0.868951283960652,3.0876284829643324e-05,1341.0876124034262,29627.50041903497,2630,0.04001566513921775,0.04022806921727078,2651.352080454773
63,220.38711792499998,1335,29960,0.8691522224557424,3.0363396417667857e-05,1342.132573784205,30179.297651135348,2655,0.040079683271321574,0.040087911344759856,2672.6496183378504
64,220.9259232,1341,30614,0.8692686507714266,2.969523625086006e-05,1342.8688758522019,30748.60637839983,2686,0.03994009275740678,0.03994607064847122,2694.327504586689
65,221.464623125,1334,31187,0.8701622824311823,2.9148235769644e-05,1343.5877143309897,31328.98165303797,2716,0.04028286183364801,0.03980053836058526,2716.2538902352876
66,222.0032177,1344,31641,0.86932404321908,2.869340341350893e-05,1344.5301592334788,31911.045686198395,2737,0.03996991095501794,0.03963446765416195,2738.0727083285615
67,222.54170692499997,1344,32089,0.8705973257298546,2.8316712497311907e-05,1345.3077759405394,32490.324197602942,2752,0.039869931196215166,0.03948885087099337,2759.755464449878
68,223.0800908,1338,32602,0.8704844215444587,2.784302781296247e-05,1345.4796937642723,33070.17601757621,2773,0.03995474491160115,0.03939266666310148,2782.0683141180466
69,223.61836932499997,1339,33059,0.8703398065724872,2.7438203233684968e-05,1345.0263199619214,33652.073455796766,2771,0.03929150703063687,0.039308476306627683,2804.2764049015295
70,224.1565425,1334,33817,0.8697053263836744,2.677416883858247e-05,1344.5913157715656,34232.38777775195,2781,0.038742222309428836,0.03920176779514014,2825.617160071521
71,224.69461032499999,1329,34504,0.8700422735223692,2.6225840950184452e-05,1344.4005753244437,34809.666379758775,2804,0.03868311540152207,0.03907240867196062,2846.2294955717593
72,225.23257279999999,1335,35226,0.8700397124616915,2.5671703769782287e-05,1344.0509411311436,35381.88532016512,2835,0.03850755565467343,0.0389350817015738,2866.0035108382426
73,225.77042992499997,1336,36172,0.8700678242154535,2.4976111614865468e-05,1343.950870914378,35942.18677659675,2889,0.03878790133788607,0.03880964507186693,2885.634918118136
74,226.30818169999998,1323,36810,0.8699872642519537,2.4515661066079232e-05,1343.9838501438053,36491.61439670138,2924,0.03924957336679285,0.03870274142283478,2905.382636073241
75,226.84582812499997,1311,37315,0.8700242014773532,2.4164653968374436e-05,1343.8280821762412,37037.4621395721,2940,0.03936422131448196,0.03859756896827478,2924.962490656584
76,227.3833692,1343,37905,0.8696880407569096,2.3786664863981994e-05,1343.9309837142146,37575.67335613419,2978,0.03889119705261056,0.038472038407012896,2943.9662733017162
77,227.92080492499997,1357,38250,0.87010037851645,2.358443006848047e-05,1344.191216109059,38102.189857074176,2997,0.038678465312307966,0.03833173877642068,2962.0937733583432
78,228.45813529999998,1379,38474,0.8693067287349536,2.34346065166452e-05,1344.5887109560547,38618.275159119505,3017,0.03838588547426484,0.03820327313395641,2980.2064146412713
79,228.99536032499998,1396,38798,0.8691277262341458,2.3237466612324095e-05,1344.6818727490736,39116.46136945269,3034,0.03806297031098687,0.038081231949616864,2997.472287027961
80,229.53248,1384,39344,0.86926662631248,2.289954231592413e-05,1344.237468572309,39589.53514235807,3029,0.037669747109695194,0.03796769588745091,3013.4695689596015
81,230.069494325,1367,40148,0.8686441253792921,2.239870362753132e-05,1343.8484223877972,40045.65686651943,3041,0.037495429872487426,0.037869164325131134,3029.252259394266
82,230.60640329999998,1353,40727,0.868302707705708,2.205269232756916e-05,1343.768058166637,40476.75913384144,3043,0.03726905003359188,0.037769393897130674,3044.157240254534
83,231.143206925,1351,41163,0.8687016218294412,2.1820094992199366e-05,1343.8437790210166,40864.851593466796,3058,0.037246902151684316,0.03767277768516972,3057.525765022932
84,231.67990519999998,1340,41491,0.8683284847277679,2.162657180961291e-05,1343.552719200862,41209.34757299066,3087,0.03778162095139375,0.037599786229330356,3069.4325352782034
85,232.216498125,1332,41819,0.8683608504247778,2.144789316137965e-05,1342.8822396883024,41527.903689777,3100,0.03791987510931922,0.03752488015911236,3079.5968425105307
86,232.75298569999998,1338,42250,0.868249886800152,2.1222376974974383e-05,1342.0174635891835,41824.48078099084,3106,0.03752116249175471,0.03745811096538614,3088.9702824525443
87,233.289367925,1335,42696,0.867778574191436,2.0980599458219967e-05,1341.4865342363103,42089.61394368987,3107,0.037177622239965784,0.03738881033713125,3097.4667376383923
88,233.8256448,1332,42963,0.8676471171202086,2.0841371024481963e-05,1340.7880359690787,42314.05418016182,3117,0.0372018472787003,0.0373313495673953,3104.51647828937
89,234.36181632499998,1335,43065,0.8677489292852631,2.0794366865211195e-05,1339.9455480305073,42490.37289632752,3125,0.03722191668872804,0.037281759804430825,3109.54793993063
90,234.89788249999998,1328,43039,0.8672589311593729,2.0792091562402554e-05,1339.4661487236147,42640.14786291793,3118,0.037217843896700575,0.0372333485445926,3113.847833472952
91,235.433843325,1328,43103,0.8668004592010585,2.0749262937188712e-05,1338.5172484087718,42770.29921402442,3110,0.03697518655407028,0.0372114346438327,3117.857097555944
92,235.9696988,1327,43332,0.8665578153052318,2.0629872998577117e-05,1337.779995016849,42864.14475978988,3125,0.03709251165144166,0.03719671680347088,3120.885093660046
93,236.505448925,1332,43465,0.8666098942893835,2.0568435532465846e-05,1337.1317357131277,42918.01325058243,3123,0.03683806803864633,0.03719729930445166,3122.8392715576197
94,237.04109369999998,1340,43557,0.8664654382940954,2.0524088359999417e-05,1335.9077215791722,42940.51487009815,3121,0.03655340136915896,0.037210756906523375,3123.3958187047806
95,237.576633125,1337,43582,0.8658853313998153,2.0496753021654995e-05,1334.6430043715345,42926.554032933105,3131,0.03677117492084906,0.03720532297166072,3121.5826859044905
96,238.11206719999998,1329,43614,0.8659634438688039,2.047921115924805e-05,1333.380212462318,42880.52932116161,3139,0.037067372198238975,0.03719209764541847,3118.1546807401605
97,238.64739592499998,1332,43596,0.8653764850454776,2.0475498889018492e-05,1332.3288636208945,42813.235565923664,3154,0.037306358975791695,0.03718176402248165,3113.999886747092
98,239.1826193,1327,43522,0.865240351462597,2.0505755455921247e-05,1331.7065165688662,42737.03825681134,3152,0.03742300370705628,0.037168541496670815,3109.77902104232
99,239.71773732499997,1321,43426,0.8654717432609225,2.0555082371711732e-05,1330.5667625540525,42668.9567600617,3144,0.037471915163630486,0.03717742065741627,3106.5122652834125
100,240.25275,1329,43081,0.8654328986505,2.0727938749053938e-05,1328.653763392124,42602.01479082117,3131,0.0373517456257952,0.03722430444760509,3104.2791003193142
101,240.787657325,1328,42714,0.8649750843904328,2.0900185676084493e-05,1326.3550703299934,42531.678158054856,3112,0.03728593124613473,0.0372927908935921,3102.49969421725
102,241.3224593,1323,42444,0.8650023747478218,2.1035538404898272e-05,1325.1087227343514,42470.18152166445,3107,0.03752740051433852,0.037355854701356876,3101.868468141915
103,241.85715592499997,1323,42133,0.864426750181391,2.1181738548919164e-05,1324.3168814695437,42410.5105891405,3096,0.03755522244723368,0.037422011029009675,3101.878071983451
104,242.3917472,1330,41943,0.8640504083213235,2.1275217499847917e-05,1323.9989354232005,42344.02002310276,3096,0.03757203410473142,0.037497521140322704,3102.6400144963045
105,242.92623312499998,1332,41955,0.8638615542876957,2.1265331321854508e-05,1324.4837935173814,42281.481415206785,3099,0.037575840445716914,0.037563557976928265,3103.917257468966
106,243.46061369999998,1327,41610,0.8647030136247108,2.1465705474386485e-05,1325.0210197286208,42239.8977100266,3081,0.037650847402073896,0.037627344356370544,3106.1285419827714
107,243.994888925,1321,41430,0.863747888775786,2.15350143054124e-05,1324.9187071054585,42221.380348364946,3078,0.037837020134609586,0.03770572317372733,3109.6181113954417
108,244.52905879999997,1326,41693,0.8628771528607923,2.137580580327476e-05,1324.6325171577812,42218.41935264591,3092,0.037749673048583225,0.03778024240900434,3113.523522616534
109,245.063123325,1330,41854,0.8633129275796555,2.130374414124113e-05,1324.5237038211255,42234.548642097536,3093,0.03755850092100811,0.03785439433692707,3118.3969965344036
110,245.59708249999997,1325,41642,0.8623491049005171,2.1389218069313615e-05,1324.1710118009214,42279.330924821945,3104,0.03805141894530892,0.0379457634919585,3125.096174318724
111,246.130936325,1328,41371,0.862505803534046,2.1539490136454462e-05,1323.6437291897637,42365.13984461628,3102,0.03821105550207021,0.0380427910033424,3133.691046229753
112,246.66468479999997,1324,41417,0.8631762817630669,2.152935130229883e-05,1323.0844186731042,42496.212915354,3091,0.03804236375116203,0.03813033705581366,3143.8009241431823
113,247.19832792499997,1322,41695,0.8629529675416884,2.1374506911591616e-05,1322.667149878794,42674.35008720387,3096,0.037918375261163526,0.03820817858774568,3155.710140659977
114,247.7318657,1325,42300,0.8621360146885437,2.1040537271227425e-05,1322.2988969172322,42893.55790618051,3136,0.038104412998192866,0.038285243428602504,3169.4399873156203
115,248.265298125,1316,42434,0.8624878814902607,2.0975920071264668e-05,1322.03916283492,43148.642891117874,3145,0.038364957810343076,0.03835806547969914,3184.626922467039
116,248.79862519999998,1322,42280,0.862427427307537,2.1056385255811732e-05,1321.8331106027063,43429.436340573135,3141,0.03830156478032154,0.0384319166770865,3201.107612856402
117,249.33184692499998,1323,42604,0.8621956715984717,2.088601709257217e-05,1321.6143514009125,43727.147296653675,3154,0.03824229729649964,0.03849285928375132,3217.7271059366526
118,249.8649633,1319,43134,0.8614594306460737,2.060168433925801e-05,1321.4632494506982,44058.1427212386,3167,0.0380719126589488,0.03854465589507624,3235.303925343661
