,x_(nm),baseline_dark,baseline_light,baseline_mirror,baseline_calibration,baseline_dark_smoothed,baseline_light_smoothed,raw_signal,calibrated_signal,calibrated_signal_smoothed,raw_signal_smoothed
0,186.23,1303,1299,0.3621226043733797,-0.09053065109334492,1282.4251401576582,4179.392931563864,1291,1.086367813120139,,1540.8878896825624
1,186.775442325,1292,1290,1.18800459154587,-0.594002295772935,1288.8492671959918,3190.238233555003,1290,1.18800459154587,,1455.9927949634944
2,187.3207793,1294,1279,1.908567993433533,-0.12723786622890218,1294.903684666899,2324.8326890053,1297,-0.3817135986867065,,1382.1044937116922
3,187.86601092499998,1295,1277,1.7279185264672412,-0.09599547369262451,1300.598567670899,1578.9449697021282,1291,0.38398189477049804,,1318.8351327436314
4,188.41113719999998,1292,1289,1.043047789334166,-0.34768259644472205,1305.944091308511,948.3437474328621,1292,-0.0,,1265.7968588757872
5,188.956158125,1294,1299,0.840365554154959,0.1680731108309918,1310.950430680254,428.79769398487315,1294,0.0,,1222.601818924635
6,189.50107369999998,1304,1305,0.8202728553565946,0.8202728553565946,1315.6277608866471,16.075481145536287,1294,-8.202728553565946,,1188.8621597066501
7,190.045883925,1325,1320,0.837733819880384,-0.1675467639760768,1319.9862570282098,-294.0542192977764,1310,2.513201459641152,,1164.190028038308
8,190.59058879999998,1326,1329,0.8116271105193998,0.27054237017313326,1324.036094205461,-505.8227355576919,1327,0.27054237017313326,,1148.1975707360837
9,191.135188325,1338,1333,0.8262856362484797,-0.16525712724969593,1327.7874475189199,-623.4613958468353,1329,1.4873141452472634,,1140.4969346164528
10,191.67968249999998,1346,1323,0.8012221689422371,-0.03483574647574944,1331.2504920691058,-651.2015283778355,1315,1.0799081407482327,,1140.7002664958904
11,192.22407132499998,1336,1315,0.7775424502505143,-0.037025830964310204,1334.4354029565377,-593.2744613633176,1304,1.1848265908579265,,1148.4197131908722
12,192.7683548,1334,1323,0.7753865851703869,-0.07048968956094427,1337.352355281735,-453.91152301590864,1303,2.1851803763892725,,1163.2674215178736
13,193.312532925,1336,1326,0.7956261498651602,-0.07956261498651603,1340.0115241452165,-237.34404154823642,1300,2.864254139514577,,1184.8555382933694
14,193.8566057,1326,1327,0.7908861747409445,0.7908861747409445,1342.4230846475016,52.19665482707296,1311,-11.863292621114168,,1212.7962103338355
15,194.400573125,1334,1334,0.7942231778648126,inf,1344.5972118891095,410.47923789739116,1324,-inf,,1246.7015844557466
16,194.9444352,1339,1337,0.7947581770897779,-0.39737908854488896,1346.5440809705592,833.2723794500953,1333,2.384274531269334,,1286.1838074755785
17,195.488191925,1362,1344,0.7914877943554887,-0.04397154413086048,1348.2738669923701,1316.3447512725552,1339,1.0113455150097912,,1330.855026209807
18,196.0318433,1368,1342,0.7911116722494277,-0.030427372009593372,1349.796745055061,1855.4650251521443,1347,0.6389748122014608,,1380.3273874749063
19,196.575389325,1358,1336,0.7900325230816138,-0.035910569230982445,1351.1228902591513,2446.4018728762367,1350,0.28728455384785956,,1434.2130380873527
20,197.11883,1346,1330,0.798472358442206,-0.049904522402637874,1352.2624777051603,3084.923966232207,1330,0.798472358442206,,1492.1241248636206
21,197.662165325,1354,1327,0.7981102791346143,-0.029559639967948678,1353.2256824936069,3766.7999770074302,1329,0.7389909991987169,,1553.6727946201866
22,198.2053953,1358,1325,0.8040599544843242,-0.024365453166191643,1354.0226797250102,4487.79857698927,1347,0.26801998482810807,,1618.4711941735256
23,198.74851992499998,1338,1318,0.8074165803696804,-0.040370829018484024,1354.6636444998899,5243.688437965105,1342,-0.1614833160739361,,1686.1314703401115
24,199.2915392,1351,1323,0.8060625325032217,-0.028787947589400776,1355.1587519187644,6030.238231722317,1344,0.20151563312580542,,1756.2657699364222
25,199.83445312499998,1377,1360,0.8122546130835153,-0.04777968312255972,1355.5181770821277,6843.216630048116,1356,1.0033733455737541,-inf,1828.4862397788952
26,200.3772617,1376,2394,0.8144257223941842,0.000800025267577784,1356.19450044166,7565.778658633119,1441,0.05200164239255596,-inf,1892.250560601563
27,200.919964925,1359,6562,0.8150182986479615,0.0001566439167111208,1356.135699562818,8305.169199755217,1815,0.07142962602027109,-inf,1956.5738295317753
28,201.4625628,1348,11378,0.8232603193402961,8.207979255636053e-05,1355.681102629705,9062.58245939868,2221,0.07165565890170274,-inf,2022.119141996382
29,202.005055325,1340,13406,0.8194894939197722,6.791724630530186e-05,1355.2536863801865,9835.918616503017,2404,0.07226395006884118,-inf,2088.992525311972
30,202.5474425,1350,14311,0.8269202298982968,6.380065040492993e-05,1354.7948990916861,10621.002786019866,2487,0.07254133951040533,-inf,2156.7406056761915
31,203.089724325,1354,15015,0.8298864771900701,6.0748589209433436e-05,1354.1731862556082,11420.207411266174,2537,0.07186558103475975,-inf,2224.8213096558948
32,203.63190079999998,1356,15704,0.8293789756785952,5.780450067456058e-05,1353.2433124192812,12235.471834016393,2608,0.07237123484454984,-inf,2293.4095676005813
33,204.173971925,1359,16233,0.8303112569560028,5.582299697162853e-05,1352.9680173956115,13063.39452762212,2661,0.07268154205706034,-inf,2363.6621441028788
34,204.71593769999998,1353,16608,0.832804584655424,5.459223760441979e-05,1353.0837844571531,13894.387755101774,2684,0.07266226825148274,-inf,2434.9487870619478
35,205.257798125,1357,16904,0.8371769300637781,5.384813340604477e-05,1353.4370427415988,14721.682506964768,2705,0.07258728383134835,inf,2505.763301546986
36,205.7995532,1359,17314,0.8381556767340916,5.253247738853599e-05,1354.105619606307,15540.667852046181,2743,0.07270494870573381,inf,2575.34562504242
37,206.34120292499998,1367,17926,0.840625124319978,5.0765452280933516e-05,1354.6907064712418,16352.686606717845,2805,0.0730007203799824,inf,2643.8983668938763
38,206.88274729999998,1357,18610,0.8415937915656597,4.8779562485692906e-05,1355.2043760900326,17156.557249314494,2858,0.07321812329102505,inf,2711.068540623745
39,207.424186325,1336,19025,0.8431564976534377,4.7665582998102646e-05,1355.2583070963974,17942.411855307815,2867,0.07297600757009515,inf,2775.815556411191
40,207.96552,1339,19326,0.844165982526256,4.693200547763696e-05,1355.1354051054125,18707.72060522286,2881,0.07236915244651619,inf,2839.328002899219
41,208.506748325,1345,19662,0.8476484869242688,4.6276600257917165e-05,1355.14829327955,19454.110376225588,2913,0.07256170920441411,-0.011185975192739249,2901.529207909523
42,209.0478713,1360,20090,0.8491768105118729,4.533779020351697e-05,1355.0431719857495,20176.244716754238,2942,0.07172438410196384,0.030638655207790147,2961.4729438944823
43,209.588888925,1359,20658,0.8502736512177026,4.4057912390160245e-05,1355.5896622799803,20870.047294389053,2986,0.07168222345879072,0.040368143479452556,3018.3090443724086
44,210.12980119999997,1344,21124,0.8513731200582484,4.3042119315381616e-05,1356.2901311467724,21533.19803393014,3023,0.07226771833052574,0.04272434435688806,3072.160366033147
45,210.670608125,1336,21604,0.8534308197221572,4.2107303124243e-05,1356.4393530997045,22153.394142562258,3061,0.07263509788931917,0.03636356898541627,3121.979297379269
46,211.2113097,1341,22040,0.8557212941711507,4.134119011407076e-05,1356.5129448005357,22727.12740945391,3091,0.07234708269962384,0.047277804022802586,3167.626288251088
47,211.751905925,1351,22297,0.8575135521308375,4.093925103269538e-05,1357.0122539581612,23249.73426351628,3107,0.07188932481341309,0.060080830877524125,3208.876056082749
48,212.29239679999998,1352,22594,0.8580327959771828,4.039322078792876e-05,1357.8386826428425,23709.699223085005,3136,0.07206150588566491,0.06123186548988446,3244.969648236591
49,212.83278232499998,1354,23012,0.8587529108532552,3.965060997567898e-05,1358.0061156537827,24113.217400167152,3168,0.07192620649588166,0.04940245631082732,3275.66357108875
50,213.37306249999997,1360,23537,0.8598387128136875,3.877164236883652e-05,1358.2468459081483,24463.145258102773,3203,0.07145613688576571,0.047744334332286475,3301.062289066507
51,213.91323732499998,1359,24118,0.8611437003932625,3.7837501664979235e-05,1358.749892409768,24750.895648825095,3245,0.07136152814015084,0.07261115135813158,3320.515821422846
52,214.45330679999998,1368,24782,0.8624756676121401,3.683589594311695e-05,1359.278488753966,25009.918480599306,3317,0.07179316119313493,0.0720159436065376,3336.942648757552
53,214.993270925,1379,25341,0.8630074298534857,3.601566771778172e-05,1358.9948130195214,25345.68604045343,3372,0.07177922576153897,0.07193349120238916,3359.937031416276
54,215.5331297,1375,25904,0.8629495266956824,3.5180787096729683e-05,1358.3612992366498,25794.442977190378,3403,0.0713466362321678,0.07184415185680376,3391.9861605018714
55,216.07288312499998,1367,26553,0.8648478670709356,3.433843671368759e-05,1358.4080726630013,26283.752383971954,3447,0.07142394836447018,0.07176322662905733,3428.438107318333
56,216.61253119999998,1367,27039,0.8650803831098881,3.369742844772079e-05,1359.1599356723561,26779.943939839573,3504,0.07201140459277933,0.07169598425204521,3466.4103150693572
57,217.152073925,1382,27336,0.8652291434094919,3.333702486743823e-05,1360.3945502729134,27284.720265464155,3546,0.07214132181313633,0.07160861915406912,3505.309406781513
58,217.69151129999997,1379,27616,0.8680312398394996,3.308424133245034e-05,1361.7489184352726,27802.70563319614,3554,0.07195822489807949,0.071533755738686,3545.8864979953564
59,218.230843325,1365,28089,0.868212549145114,3.248812113250689e-05,1363.0259349022367,28335.419352646175,3573,0.0717337714605752,0.07145837813832419,3587.4154114475286
60,218.77006999999998,1367,28687,0.868144571802742,3.177688769409744e-05,1363.9694443815001,28877.452784886988,3619,0.07156155108710743,0.07136770613494672,3628.7258601553135
61,219.30919132499997,1364,29339,0.8681762475955156,3.103400348866901e-05,1365.071575800105,29418.492604588442,3665,0.07140924202742739,0.07124850770205389,3668.729710752156
62,219.84820729999998,1355,29844,0.868951283960652,3.0501291163629893e-05,1366.1349973951583,29960.20313030815,3694,0.07134252003173032,0.07111746438441252,3708.1113728509563
63,220.38711792499998,1351,30278,0.8691522224557424,3.004640033379688e-05,1367.3724206663537,30513.672019750717,3732,0.07154047919477037,0.07098899187628818,3748.440077917888
64,220.9259232,1365,30926,0.8692686507714266,2.9405928445297064e-05,1368.2548868603783,31086.86244308985,3794,0.07142700019362656,0.07087146169542356,3790.3984914719877
65,221.464623125,1357,31556,0.8701622824311823,2.8814274725361183e-05,1368.4537815125789,31671.497995423983,3820,0.07096955864856459,0.07075238056064387,3832.6399012434426
66,222.0032177,1355,32012,0.86932404321908,2.8356461598299898e-05,1368.3434958888954,32258.024394662905,3838,0.07040909414857864,0.07061809343015037,3874.444993091501
67,222.54170692499997,1360,32503,0.8705973257298546,2.7954831767326673e-05,1368.345738295292,32841.195746222395,3872,0.0702225373995246,0.07048189618160372,3915.6988833268415
68,223.0800908,1360,32994,0.8704844215444587,2.7517368070571496e-05,1369.1446238872645,33423.84565901768,3922,0.07049949699680418,0.07031020039861106,3956.599130218049
69,223.61836932499997,1363,33400,0.8703398065724872,2.7166707449901277e-05,1369.8728850030313,34008.69734308754,3960,0.07055193924739361,0.07013495723032803,3997.5625042469046
70,224.1565425,1375,34078,0.8697053263836744,2.6594053340172902e-05,1369.7378423067075,34592.59371673132,4019,0.07031467703141715,0.06997159710636229,4037.7750798431807
71,224.69461032499999,1367,34755,0.8700422735223692,2.6058532212842014e-05,1369.1965163423597,35175.326847719545,4046,0.06981080779820376,0.06980290089755677,4076.9050261613297
72,225.23257279999999,1360,35472,0.8700397124616915,2.55053855670055e-05,1368.6417585902022,35751.988969171885,4083,0.06945116489895597,0.06962167394528768,4114.933792384799
73,225.77042992499997,1352,36487,0.8700678242154535,2.4763564087532476e-05,1368.2247389521583,36314.85585177397,4156,0.06943703370144107,0.06943104894544602,4151.739790255646
74,226.30818169999998,1351,37184,0.8699872642519537,2.4278940201823843e-05,1367.360347912724,36864.280482003414,4206,0.06931637427620707,0.06925430345489653,4187.613921040033
75,226.84582812499997,1358,37633,0.8700242014773532,2.3984126849823657e-05,1366.2077736754816,37406.7221001601,4246,0.06926615834229072,0.06907553491429436,4222.603501777989
76,227.3833692,1378,38233,0.8696880407569096,2.359755910342992e-05,1365.4953226573384,37941.55643389359,4307,0.06911725061394623,0.06886648047220452,4256.162246030406
77,227.92080492499997,1384,38615,0.87010037851645,2.3370319854864225e-05,1364.919952886789,38466.13560895983,4338,0.06903592485126891,0.06865009159851675,4288.735894357662
78,228.45813529999998,1403,38850,0.8693067287349536,2.32143223418419e-05,1364.4093410949024,38981.555459919065,4361,0.06866796548716834,0.0684635972745462,4321.711001381602
79,228.99536032499998,1412,39193,0.8691277262341458,2.3004360028430847e-05,1364.2450791637148,39478.16829373183,4394,0.06859900160478079,0.06829882260240931,4354.4981539784885
80,229.53248,1385,39745,0.86926662631248,2.266075668176434e-05,1364.3027248635044,39948.88185462788,4407,0.06848080669229183,0.06812753813977249,4385.402319418248
81,230.069494325,1371,40530,0.8686441253792921,2.218248998644736e-05,1364.2395977258568,40406.54635439004,4432,0.06790060184851537,0.0679642654011649,4415.513692269276
82,230.60640329999998,1357,41150,0.868302707705708,2.1820488721777902e-05,1364.1072957484619,40841.23846519662,4446,0.06740348966157193,0.06783579074180261,4444.945797186714
83,231.143206925,1352,41643,0.8687016218294412,2.1560686551076945e-05,1364.4194432489717,41232.17875829498,4455,0.06690281036799176,0.06772651278066738,4471.992706516484
84,231.67990519999998,1355,41920,0.8683284847277679,2.140585442444886e-05,1364.4117420552864,41579.159777117595,4471,0.06670064238658265,0.06764001748541675,4496.187682620131
85,232.216498125,1358,42169,0.8683608504247778,2.1277617564499223e-05,1363.7910937959825,41898.74142109593,4494,0.06672660868226957,0.06756328822199771,4518.0357652494085
86,232.75298569999998,1354,42627,0.868249886800152,2.103675252102227e-05,1363.2785793562446,42195.52309225495,4550,0.06723346105718717,0.067483556214541,4538.11275453569
87,233.289367925,1355,43106,0.867778574191436,2.078461771434064e-05,1362.902670502137,42462.70382115028,4602,0.06748765371846406,0.06741798814792366,4556.7458379577365
88,233.8256448,1356,43388,0.8676471171202086,2.0642537046065106e-05,1362.405014836097,42689.25665360402,4628,0.06754238121472503,0.06737516044776666,4572.999501687379
89,234.36181632499998,1357,43436,0.8677489292852631,2.062189998063792e-05,1361.929058415793,42864.22206618414,4621,0.06730988153680217,0.06736333175884034,4586.374617771549
90,234.89788249999998,1355,43415,0.8672589311593729,2.061956564810682e-05,1361.8398831230347,43010.901266166016,4606,0.06703420792199528,0.06736007146044876,4598.282180796759
91,235.433843325,1363,43492,0.8668004592010585,2.0574911799498172e-05,1360.8641871842817,43139.93558177906,4608,0.06676558878937157,0.06736099202772819,4608.222587147979
92,235.9696988,1361,43685,0.8665578153052318,2.047438369022852e-05,1359.4356837074195,43235.43038347332,4625,0.06682838836490589,0.06736837896131184,4615.599651181139
93,236.505448925,1345,43794,0.8666098942893835,2.0415319425413637e-05,1357.719223538446,43292.40340664485,4627,0.06700307835420756,0.0673980251856869,4620.569797730325
94,237.04109369999998,1342,43886,0.8664654382940954,2.036633692868784e-05,1355.7655213028347,43315.5137149191,4624,0.06684231779995349,0.06745829981789869,4624.000566264152
95,237.576633125,1351,43918,0.8658853313998153,2.0341704404816297e-05,1353.9637590885154,43301.170558788726,4638,0.06686318237863116,0.06754028682961241,4625.626537407327
96,238.11206719999998,1350,43889,0.8659634438688039,2.0356929967060905e-05,1352.677161430584,43253.194092730606,4663,0.06744250898087278,0.06763481408862135,4625.764434075428
97,238.64739592499998,1348,43899,0.8653764850454776,2.0337394774399604e-05,1351.2660309406524,43181.61292441422,4679,0.06774386199352508,0.06773133972565801,4623.959342227367
98,239.1826193,1347,43892,0.865240351462597,2.0337063144026254e-05,1350.065120387752,43098.73589435691,4679,0.06776309439589548,0.06782618866950464,4621.547804027183
99,239.71773732499997,1359,43791,0.8654717432609225,2.0396675699022494e-05,1348.9301229925672,43025.75820516803,4674,0.06761497994225957,0.06792321611352328,4620.212711499606
100,240.25275,1369,43457,0.8654328986505,2.0562461952349837e-05,1347.4652880019676,42956.506670591945,4663,0.06773274967104037,0.06803701300363726,4619.688985027885
101,240.787657325,1359,43121,0.8649750843904328,2.0712012939764207e-05,1346.2549774626573,42883.069197489494,4668,0.06853605081767976,0.06816635918255955,4619.819520260846
102,241.3224593,1351,42827,0.8650023747478218,2.0855491724077102e-05,1345.7113637907735,42820.72506738463,4661,0.06903167760669521,0.06829484167909197,4621.352420213279
103,241.85715592499997,1356,42496,0.864426750181391,2.1011831555211255e-05,1345.2713085233834,42761.65446555899,4634,0.06887678383798249,0.06842057380887973,4623.024983578249
104,242.3917472,1356,42321,0.8640504083213235,2.109240591532585e-05,1345.3458062470013,42695.572040135994,4607,0.06857141163072435,0.06853081168817506,4623.972977870306
105,242.92623312499998,1345,42356,0.8638615542876957,2.10641426516714e-05,1346.1749530000423,42633.955151871254,4610,0.06877442575770712,0.06863223433563366,4625.5614396701185
106,243.46061369999998,1339,42003,0.8647030136247108,2.1264583258526236e-05,1346.6426419624195,42594.00414505343,4585,0.06902483725717616,0.0687408405742304,4628.918956261661
107,243.994888925,1338,41757,0.863747888775786,2.1369848060956134e-05,1346.3106525628862,42577.03796235394,4566,0.0689818695407664,0.0688377844780884,4632.927178418448
108,244.52905879999997,1336,41988,0.8628771528607923,2.122594590329608e-05,1345.6774785385596,42576.95281886258,4592,0.06911167986113204,0.06891904416146032,4637.44078008553
109,245.063123325,1344,42196,0.8633129275796555,2.1132696748743157e-05,1345.1602754309013,42598.013680943266,4600,0.06880806061390772,0.0689832047636741,4642.971777390113
110,245.59708249999997,1351,41999,0.8623491049005171,2.121504391115226e-05,1344.2983080024203,42645.327844344465,4597,0.06886403253560024,0.06903189659667204,4649.527962128159
111,246.130936325,1349,41723,0.862505803534046,2.1362901955071235e-05,1343.2730752678171,42732.3996466503,4600,0.06945079425593659,0.0690641906327459,4658.159527962039
112,246.66468479999997,1340,41727,0.8631762817630669,2.1372626879022133e-05,1342.2597793834257,42866.96434800253,4593,0.069525155237459,0.06909501608137443,4670.296586559063
113,247.19832792499997,1331,42003,0.8629529675416884,2.1217372333342062e-05,1341.6056082810228,43049.50793902384,4601,0.06938080753002854,0.06911949516401929,4686.183016602778
114,247.7318657,1319,42670,0.8621360146885437,2.084921802830751e-05,1341.160977598561,43274.546852702515,4639,0.06921940385398093,0.06912725706186905,4704.614260798569
115,248.265298125,1312,42856,0.8624878814902607,2.0760829036449565e-05,1340.7741285193065,43532.81902194757,4662,0.06954877727210604,0.06911006940082826,4724.364085256654
116,248.79862519999998,1328,42700,0.862427427307537,2.0845678896537197e-05,1340.4649029422835,43814.56748737146,4671,0.06968710455112385,0.0690635155253084,4744.475933769643
117,249.33184692499998,1337,42937,0.8621956715984717,2.0725857490347878e-05,1340.3681623592577,44112.323291579945,4693,0.06955597773760748,0.06898743103012081,4764.6154839293295
118,249.8649633,1350,43461,0.8614594306460737,2.0456874228730584e-05,1340.5171125053535,44443.169109152244,4730,0.06914423489310938,0.06887820738147918,4785.614917665088
119,250.397974325,1359,43937,0.861591555373828,2.0235604194039833e-05,1340.2427688056098,44813.027044779315,4762,0.06886176107231755,0.0687519398547239,4808.15930145634
