,x_(nm),baseline_dark,baseline_light,baseline_mirror,baseline_calibration,baseline_dark_smoothed,baseline_light_smoothed,raw_signal,calibrated_signal,calibrated_signal_smoothed,raw_signal_smoothed
0,186.23,1287,1314,0.3621226043733797,0.013411948310125174,1279.3853553032225,4198.504431606545,1285,-0.026823896620250347,,1416.1620516614964
1,186.775442325,1280,1301,1.18800459154587,0.05657164721647,1283.5257292467043,3205.86842223424,1276,-0.22628658886588,,1370.328749632412
2,187.3207793,1292,1302,1.908567993433533,0.19085679934335328,1287.449719510444,2337.2499989190965,1276,-3.0537087894936525,,1330.6357350100175
3,187.86601092499998,1300,1307,1.7279185264672412,0.24684550378103445,1291.16215426664,1588.4149117863535,1280,-4.936910075620689,,1296.8711098759775
4,188.41113719999998,1292,1304,1.043047789334166,0.08692064911118051,1294.6678616874894,955.1289109612517,1284,-0.6953651928894441,,1268.8229763119568
5,188.956158125,1294,1296,0.840365554154959,0.4201827770774795,1297.9716699451903,433.15774656902977,1284,-4.201827770774795,,1246.2794363996204
6,189.50107369999998,1296,1292,0.8202728553565946,-0.20506821383914864,1301.0784072119404,18.26716873492751,1279,3.486159635265527,,1229.0285922206328
7,190.045883925,1301,1311,0.837733819880384,0.0837733819880384,1303.9929016599374,-293.7770724158154,1291,-0.837733819880384,,1216.8585458566592
8,190.59058879999998,1304,1318,0.8116271105193998,0.05797336503709999,1306.7199814613791,-507.2092267579592,1309,0.28986682518549994,,1209.557399389364
9,191.135188325,1308,1316,0.8262856362484797,0.10328570453105997,1309.2644747884633,-626.2635441662642,1320,1.2394284543727196,,1206.9132549004123
10,191.67968249999998,1315,1325,0.8012221689422371,0.0801222168942237,1311.6312098133876,-655.1742745154934,1322,0.5608555182595659,,1208.7142144714685
11,192.22407132499998,1318,1329,0.7775424502505143,0.07068567729550129,1313.8250147083502,-598.1756676804025,1312,-0.42411406377300775,,1214.7483801841977
12,192.7683548,1307,1323,0.7753865851703869,0.048461661573149184,1315.8507176455482,-459.5019735357564,1306,-0.048461661573149184,,1224.8038541202648
13,193.312532925,1300,1309,0.7956261498651602,0.08840290554057335,1317.71314679718,-243.3874419563126,1297,-0.2652087166217201,,1238.6687383613341
14,193.8566057,1311,1306,0.7908861747409445,-0.1581772349481889,1319.4171303354428,45.933677183165855,1308,0.47453170484456664,,1256.131134989071
15,194.400573125,1316,1316,0.7942231778648126,inf,1320.9674964325347,404.22713400792327,1328,inf,,1276.9791460851397
16,194.9444352,1317,1325,0.7947581770897779,0.09934477213622224,1322.3690732606535,827.2586786431948,1330,1.291482037770889,,1301.0008737312055
17,195.488191925,1326,1335,0.7914877943554887,0.08794308826172097,1323.6266889919968,1310.7940612142202,1335,0.7914877943554887,,1327.9844200089328
18,196.0318433,1340,1352,0.7911116722494277,0.0659259726874523,1324.7451717987626,1850.5990318462414,1344,0.2637038907498092,,1357.7178869999866
19,196.575389325,1338,1347,0.7900325230816138,0.08778139145351264,1325.7293498531483,2442.4393406644976,1337,-0.08778139145351264,,1389.9893767860317
20,197.11883,1327,1331,0.798472358442206,0.1996180896105515,1326.584051327352,3082.0807377942238,1322,-0.9980904480527575,,1424.5869914487328
21,197.662165325,1320,1339,0.7981102791346143,0.0420058041649797,1327.3141043935711,3765.288973360669,1329,0.37805223748481726,,1461.2988330697544
22,198.2053953,1328,1349,0.8040599544843242,0.0382885692611583,1327.9243372240037,4487.829797489063,1337,0.3445971233504247,,1499.913003730762
23,198.74851992499998,1331,1344,0.8074165803696804,0.06210896772074465,1328.4195779908473,5245.468960304652,1334,0.18632690316223396,,1540.21760551342
24,199.2915392,1341,1341,0.8060625325032217,inf,1328.8046548662999,6033.972211932667,1340,-inf,,1582.0007404993933
25,199.83445312499998,1363,1367,0.8122546130835153,0.20306365327087883,1329.0843960225345,6849.1053024982275,1354,-1.8275728794379096,,1625.050510770315
26,200.3772617,1356,2379,0.8144257223941842,0.000796115075654139,1329.675643842417,7574.871911028417,1409,0.04219409900966937,,1663.4321275679767
27,200.919964925,1325,6528,0.8150182986479615,0.0001566439167111208,1329.5886203537766,8316.15006002385,1628,0.0474631067634696,,1701.5624589458096
28,201.4625628,1308,11374,0.8232603193402961,8.178624273199842e-05,1329.3033817300252,9075.17850913933,1858,0.04498243350259913,,1739.9132030170226
29,202.005055325,1311,13436,0.8194894939197722,6.758676238513586e-05,1329.2522593942986,9852.939069967422,1963,0.04406656907510858,,1779.6503431560964
30,202.5474425,1309,14344,0.8269202298982968,6.343845261973891e-05,1329.1258692155852,10645.37618066074,2023,0.045295055170493585,,1820.3047634147651
31,203.089724325,1316,15017,0.8298864771900701,6.057123401139115e-05,1328.659244829982,11450.810686538545,2065,0.04536785427453197,,1861.2283403927254
32,203.63190079999998,1327,15704,0.8293789756785952,5.768790259988838e-05,1327.8498493736863,12270.90593218396,2092,0.04413124548891461,,1902.5659018323945
33,204.173971925,1335,16255,0.8303112569560028,5.5650888535925125e-05,1327.3082289519327,13102.187478764841,2113,0.043296391280949746,,1945.216833903335
34,204.71593769999998,1341,16639,0.832804584655424,5.443878838118865e-05,1326.8453419103234,13935.05581100338,2138,0.04338771433980736,,1988.7208543794495
35,205.257798125,1331,16954,0.8371769300637781,5.35861825554489e-05,1326.5154816643383,14764.688599968007,2160,0.044422945338467135,-inf,2032.8059072685287
36,205.7995532,1332,17387,0.8381556767340916,5.220527416593532e-05,1326.30639425579,15587.72221341337,2181,0.04432227776687909,-inf,2077.111463453266
37,206.34120292499998,1335,18019,0.840625124319978,5.038510694797279e-05,1325.9676776370675,16405.925796733478,2203,0.04373427283084038,-inf,2120.9240979410224
38,206.88274729999998,1321,18686,0.8415937915656597,4.8464946246222845e-05,1325.015583591902,17214.141815216324,2232,0.044151566030309015,-inf,2164.2654193752555
39,207.424186325,1319,19045,0.8431564976534377,4.756608922788208e-05,1323.774740084688,18001.053296790073,2256,0.044569425606525506,-inf,2205.9046864028205
40,207.96552,1323,19353,0.844165982526256,4.682007667921553e-05,1323.105189245484,18767.449206097175,2263,0.0440108720784626,-inf,2246.3933271421347
41,208.506748325,1319,19697,0.8476484869242688,4.6122999614989047e-05,1322.356225509046,19515.24614374014,2282,0.044416448629234453,-inf,2286.909669528145
42,209.0478713,1326,20144,0.8491768105118729,4.512577375448363e-05,1321.3249224217734,20240.963872341003,2313,0.04453913869567534,-inf,2326.3913791931423
43,209.588888925,1324,20766,0.8502736512177026,4.373385717609827e-05,1320.7069242791201,20939.517248408396,2345,0.044652268176796336,-inf,2364.605766834991
44,210.12980119999997,1313,21227,0.8513731200582484,4.27524917172968e-05,1320.8822396883027,21606.704523318353,2371,0.04523213623690001,inf,2401.8214455593097
45,210.670608125,1305,21702,0.8534308197221572,4.184099719184964e-05,1321.4375410541322,22229.17563251673,2389,0.04535564095596501,inf,2437.1918050238496
46,211.2113097,1312,22131,0.8557212941711507,4.1102900916045474e-05,1321.9725928106839,22806.002423610516,2408,0.04504877940398584,inf,2470.513511064756
47,211.751905925,1315,22358,0.8575135521308375,4.075053709693663e-05,1322.0097170943595,23332.69161249361,2428,0.04535534778889047,inf,2501.955989943099
48,212.29239679999998,1324,22706,0.8580327959771828,4.0128743615058594e-05,1321.818274479578,23797.506217580918,2464,0.045746767721166794,inf,2530.7689188882614
49,212.83278232499998,1329,23164,0.8587529108532552,3.932919216181613e-05,1321.7901424720578,24206.638859316845,2490,0.045661192099868526,inf,2556.8663842895157
50,213.37306249999997,1320,23626,0.8598387128136875,3.8547418309588786e-05,1322.1864368388615,24560.943803936196,2512,0.04594852262502983,0.09631877033245204,2581.1136152573745
51,213.91323732499998,1309,24204,0.8611437003932625,3.761274079027135e-05,1322.8286484404828,24851.778115019115,2550,0.046677411320726746,0.04669990452494804,2602.6214183786224
52,214.45330679999998,1317,24922,0.8624756676121401,3.6537838068720195e-05,1323.2376950780058,25112.119980067022,2615,0.04742611381319881,0.04688017935802495,2622.9542684998023
53,214.993270925,1330,25525,0.8630074298534857,3.566883363725917e-05,1322.718725225914,25447.672359509354,2674,0.04793891240847632,0.047220719829530404,2647.557996783568
54,215.5331297,1327,26021,0.8629495266956824,3.494571663949471e-05,1321.649120025343,25897.442025866454,2695,0.04780574036282876,0.047483955612939395,2677.0606808760726
55,216.07288312499998,1317,26558,0.8648478670709356,3.426361344918726e-05,1321.06394255813,26389.394459670155,2727,0.04831169496335404,0.047722292213697226,2709.3795329452014
56,216.61253119999998,1325,27053,0.8650803831098881,3.3624082054955226e-05,1320.8616956216194,26886.919816982878,2774,0.04872129489763012,0.048006617732550425,2743.338331558986
57,217.152073925,1335,27377,0.8652291434094919,3.32243738349394e-05,1321.3185349611292,27391.919092164644,2807,0.0489062782850308,0.04830314957375318,2778.8847765520773
58,217.69151129999997,1328,27707,0.8680312398394996,3.290614654988815e-05,1322.0823121701255,27910.840539989047,2820,0.049095970652433124,0.04856554308383844,2815.324809168897
59,218.230843325,1325,28234,0.868212549145114,3.226476454513783e-05,1322.9317311830137,28444.639153774173,2850,0.04920376593133519,0.04880036424929725,2852.5563885931183
60,218.77006999999998,1321,28818,0.868144571802742,3.157233777512972e-05,1323.8876984755914,28985.710752224863,2879,0.0491897022536521,0.0490328748578797,2890.6526082130413
61,219.30919132499997,1321,29434,0.8681762475955156,3.0881664980454434e-05,1324.6387460644382,29524.99768964133,2906,0.04894743899402028,0.04928340197687755,2928.8279689233623
62,219.84820729999998,1327,29874,0.868951283960652,3.0439320557699655e-05,1325.7577295068718,30064.914403496674,2938,0.04903774541845415,0.0495170973675144,2967.0747921809666
63,220.38711792499998,1336,30349,0.8691522224557424,2.99573371404454e-05,1327.453690910301,30616.515504314346,2965,0.048800502201785556,0.0497207558320658,3006.042152710083
64,220.9259232,1337,31094,0.8692686507714266,2.9212240843210895e-05,1328.788919341296,31188.590681555048,3025,0.04931026254333999,0.04991501482937649,3045.6117239347986
65,221.464623125,1326,31728,0.8701622824311823,2.862187627232361e-05,1330.0006795170643,31770.26084395962,3085,0.05034588036301723,0.05011299725526202,3085.966681011968
66,222.0032177,1332,32184,0.86932404321908,2.8177234643429274e-05,1330.9726607623927,32353.37214885893,3112,0.05015547766530411,0.05029626716112462,3126.486602187985
67,222.54170692499997,1343,32608,0.8705973257298546,2.7845748464092582e-05,1331.6311581236012,32932.11961765775,3152,0.05037295897154348,0.050480750291364195,3166.721851004492
68,223.0800908,1340,33052,0.8704844215444587,2.7449685341336363e-05,1332.6065596049486,33508.25688010989,3198,0.051001515364202964,0.05064684783690098,3206.690661170067
69,223.61836932499997,1330,33491,0.8703398065724872,2.706196345177349e-05,1333.3565199664515,34087.269473826615,3234,0.05152597841217672,0.050796499977440436,3246.2737321343016
70,224.1565425,1317,34230,0.8697053263836744,2.642437111122275e-05,1333.8221250764202,34665.64103377133,3276,0.051765343006885366,0.0509467287200715,3285.656345557028
71,224.69461032499999,1305,34870,0.8700422735223692,2.592111644636881e-05,1333.9934539853423,35243.17325420667,3307,0.05189407512563036,0.05108607798733362,3324.5966839565376
72,225.23257279999999,1311,35558,0.8700397124616915,2.5404844583808553e-05,1333.9780515979721,35816.17835058483,3345,0.0516734538834666,0.0512018356772354,3362.6361185983183
73,225.77042992499997,1325,36549,0.8700678242154535,2.4700994328169813e-05,1334.4348682869118,36376.28397019115,3405,0.05137806820259321,0.05130060160917303,3399.882375591681
74,226.30818169999998,1323,37207,0.8699872642519537,2.4244433849402344e-05,1335.2721239438915,36923.720129560556,3452,0.05161639966537759,0.05138364214122175,3436.2963600533894
75,226.84582812499997,1320,37672,0.8700242014773532,2.393332420437261e-05,1336.1850325035418,37466.799542457775,3469,0.05143271371519674,0.051437921745592065,3471.749869759158
76,227.3833692,1340,38288,0.8696880407569096,2.353816284391333e-05,1336.5631384629069,38001.988267004184,3516,0.051219042348355406,0.0514871088122108,3506.3060997983425
77,227.92080492499997,1352,38691,0.87010037851645,2.3302723118360158e-05,1336.2740718928826,38523.91068880309,3549,0.051196082691037266,0.051553602907942156,3540.2610478152847
78,228.45813529999998,1362,38941,0.8693067287349536,2.313277971034231e-05,1336.420983487709,39037.47142630562,3578,0.05126223983811856,0.051622825731780286,3574.093977213458
79,228.99536032499998,1370,39253,0.8691277262341458,2.2942420775391226e-05,1337.177852272959,39534.36913633301,3634,0.05194164063548574,0.05168897322274299,3607.353303585516
80,229.53248,1361,39763,0.86926662631248,2.2635972769972395e-05,1337.6936057441587,40005.64848580865,3663,0.05210800931647645,0.051755636311602925,3639.2843552514646
81,230.069494325,1348,40577,0.8686441253792921,2.2142907680014584e-05,1337.630161498536,40462.44343020149,3696,0.05199154723267425,0.05184285682888119,3670.8216041132728
82,230.60640329999998,1332,41184,0.868302707705708,2.1788183973344075e-05,1337.545357765722,40895.024258759324,3715,0.05192124240847893,0.05194431922882323,3701.5244286393095
83,231.143206925,1332,41621,0.8687016218294412,2.1561756852476886e-05,1337.875852227658,41284.98643230798,3741,0.05194227225761682,0.05202990117041686,3729.3942784660317
84,231.67990519999998,1339,41880,0.8683284847277679,2.1418526546650747e-05,1337.9676776370668,41632.396384968284,3761,0.05187567129598811,0.05210323461748741,3753.9392964732347
85,232.216498125,1346,42179,0.8683608504247778,2.1266153611656695e-05,1337.6967315227723,41952.055992207395,3778,0.05171928558354908,0.05218436608922995,3776.9182087928784
86,232.75298569999998,1348,42665,0.868249886800152,2.1014349705935863e-05,1337.1100364673914,42249.499286506245,3816,0.05186341507424971,0.05226374704413786,3798.4266687806467
87,233.289367925,1340,43159,0.867778574191436,2.075082077982343e-05,1336.4769983464828,42516.81825182822,3852,0.052126061798916455,0.05232601087777651,3817.628190898928
88,233.8256448,1325,43462,0.8676471171202086,2.0591098491117273e-05,1336.4987655439277,42742.331808194154,3863,0.05226020797045564,0.05237439450020996,3834.3588756256486
89,234.36181632499998,1322,43464,0.8677489292852631,2.0591071360762734e-05,1336.910484948671,42922.15334435579,3880,0.05267196054083107,0.05240363412903599,3847.9867720672432
90,234.89788249999998,1321,43434,0.8672589311593729,2.0593615538179967e-05,1337.0154250379142,43077.41230831873,3880,0.052699062162202534,0.05243960801444349,3860.154929896413
91,235.433843325,1331,43512,0.8668004592010585,2.0549547407625674e-05,1336.5698883326659,43214.02930983631,3874,0.05225749905759209,0.052505747717367074,3871.8101655755904
92,235.9696988,1337,43730,0.8665578153052318,2.0441059026377745e-05,1336.046252463224,43317.09893768746,3886,0.05210425945823687,0.05257345916361298,3881.6553715825207
93,236.505448925,1333,43925,0.8666098942893835,2.0346776255855173e-05,1335.82346146003,43381.036852476005,3905,0.05233190853005951,0.05263947763735316,3889.2138440281024
94,237.04109369999998,1339,44064,0.8664654382940954,2.0280057069493163e-05,1335.746109764635,43412.531382363435,3927,0.05248478769584831,0.052708598677295916,3894.9586627102917
95,237.576633125,1337,44106,0.8658853313998153,2.02456295774934e-05,1335.3592833359503,43408.24809168867,3933,0.052557654383172864,0.05279618448414759,3899.0396837979724
96,238.11206719999998,1336,44087,0.8659634438688039,2.0255981003223406e-05,1334.5212349090323,43371.76574780774,3932,0.052584526684367965,0.05289168414339648,3901.07402206158
97,238.64739592499998,1347,44059,0.8653764850454776,2.0260734338019235e-05,1333.3587397222784,43311.85440213738,3940,0.052536084138483874,0.052987065152033996,3901.156017123756
98,239.1826193,1332,44000,0.865240351462597,2.0278437036247237e-05,1332.3322159052045,43242.99938843379,3938,0.0528456069164603,0.053078590805877644,3900.7920904209996
99,239.71773732499997,1325,43932,0.8654717432609225,2.031290030419702e-05,1331.5563206414386,43184.65566603917,3948,0.05328073749790878,0.053161694828204,3901.1223810278084
100,240.25275,1325,43566,0.8654328986505,2.0487983207085533e-05,1330.9836689392484,43126.96165258474,3948,0.05373997995218535,0.053243515528094365,3901.4906566399395
101,240.787657325,1332,43184,0.8649750843904328,2.066747310499935e-05,1330.6418718430514,43063.72060522239,3934,0.05377676501920831,0.0533202691125178,3901.4983804841945
102,241.3224593,1341,42996,0.8650023747478218,2.076587143795035e-05,1330.5586763006834,43010.45498199197,3918,0.053513650695598054,0.05339333861025677,3902.2447167545515
103,241.85715592499997,1331,42719,0.864426750181391,2.088592708469583e-05,1330.4249926385396,42961.234977008855,3910,0.05386480595143055,0.05347197353956931,3903.542050782503
104,242.3917472,1320,42558,0.8640504083213235,2.0952771917195876e-05,1330.4449477904116,42906.96799474424,3913,0.054330537581288904,0.0535632532312885,3905.5215293663887
105,242.92623312499998,1322,42554,0.8638615542876957,2.095124064531664e-05,1331.0539310063396,42855.52950236616,3901,0.05403324962427162,0.05367364119481475,3909.1943418876235
106,243.46061369999998,1328,42148,0.8647030136247108,2.1183317335245243e-05,1331.9245283018615,42822.87422138585,3859,0.05361497617550571,0.05378622811931096,3914.352171057027
107,243.994888925,1334,41952,0.863747888775786,2.126515064197612e-05,1332.3461460055464,42812.134770888675,3840,0.05329046750879216,0.05389312954542367,3920.1954064643974
108,244.52905879999997,1329,42177,0.8628771528607923,2.1124097945084026e-05,1332.462320777342,42815.58637794658,3876,0.053803077466129015,0.053983821732431964,3925.836145778991
109,245.063123325,1329,42400,0.8633129275796555,2.1020012358590136e-05,1333.2203220910753,42837.93157262823,3912,0.05429469192223832,0.05406061444575579,3932.4303608234995
110,245.59708249999997,1337,42302,0.8623491049005171,2.1050875256939266e-05,1334.3516953951137,42886.54855149525,3904,0.054037596784563095,0.054129729863925745,3940.642347504964
111,246.130936325,1343,42039,0.862505803534046,2.1193871720415916e-05,1335.405649052048,42972.67002650034,3887,0.05391720965673809,0.05419044070040263,3950.766902987534
112,246.66468479999997,1344,42069,0.8631762817630669,2.1195243259989364e-05,1336.5594011189123,43103.260119141174,3893,0.05402667506971289,0.05424979889069173,3963.679585041488
113,247.19832792499997,1326,42356,0.8629529675416884,2.103224390791344e-05,1337.7208317288919,43280.827357357215,3910,0.05434731825804833,0.0543053727417172,3979.3220004982363
114,247.7318657,1319,42883,0.8621360146885437,2.0742373560979302e-05,1338.1782146820733,43499.17001517505,3947,0.05451095771825361,0.054353111592267994,3996.3863054655058
115,248.265298125,1329,43056,0.8624878814902607,2.0669779315317677e-05,1338.3827719766894,43748.26618949382,3968,0.054547547613123346,0.054409967616570916,4015.6304333053204
116,248.79862519999998,1336,42969,0.862427427307537,2.0714995972126365e-05,1338.8791365602588,44020.41867312879,3963,0.05441829441877596,0.05446526170959569,4036.5578382295535
117,249.33184692499998,1345,43248,0.8621956715984717,2.0575989108141937e-05,1339.7748986386753,44307.289134520885,3971,0.054032547397980725,0.054494907051661795,4057.517452263847
118,249.8649633,1349,43763,0.8614594306460737,2.031073302791705e-05,1340.9002695417532,44627.84418673044,4013,0.05410779278637102,0.054502463628726835,4079.566830505709
119,250.397974325,1345,44160,0.861591555373828,2.01235911566934e-05,1341.6690525266454,44989.60424924601,4055,0.05453493203463912,0.05450721458239047,4103.622913316191
120,250.93087999999997,1348,44764,0.861950076569216,1.98532816604297e-05,1342.2214093184186,45390.16061518861,4091,0.05445755159455867,0.054512892851462144,4129.94713357033
