,x_(nm),baseline_dark,baseline_light,baseline_mirror,baseline_calibration,baseline_dark_smoothed,baseline_light_smoothed,raw_signal,calibrated_signal,calibrated_signal_smoothed,raw_signal_smoothed
0,186.23,1271,1286,0.3621226043733797,0.02414150695822531,1249.5231540769828,4115.752914615312,1266,-0.12070753479112656,,1405.5873941900586
1,186.775442325,1265,1271,1.18800459154587,0.19800076525764498,1256.4388982169226,3139.6387053321773,1260,-0.9900038262882249,,1357.8233580289082
2,187.3207793,1257,1264,1.908567993433533,0.2726525704905047,1262.9248593744867,2285.715364849393,1264,1.9085679934335327,,1316.518849965402
3,187.86601092499998,1259,1263,1.7279185264672412,0.4319796316168103,1268.993858581975,1549.8057117961048,1263,1.7279185264672412,,1281.4413910734434
4,188.41113719999998,1271,1266,1.043047789334166,-0.20860955786683322,1274.658716871687,927.7325648014566,1263,1.6688764629346657,,1252.358502426935
5,188.956158125,1281,1269,0.840365554154959,-0.07003046284624657,1279.9322552759213,415.31874249459406,1261,1.4006092569249315,,1229.0377050997795
6,189.50107369999998,1277,1269,0.8202728553565946,-0.10253410691957432,1284.8272948269782,8.387063504661455,1266,1.1278751761153174,,1211.2465201658802
7,190.045883925,1282,1278,0.837733819880384,-0.209433454970096,1289.3566565571566,-297.2396535391963,1285,-0.628300364910288,,1198.7524686991396
8,190.59058879999998,1283,1290,0.8116271105193998,0.11594673007419998,1293.5331614987558,-505.7385900078334,1305,2.5508280616323997,,1191.3230717734607
9,191.135188325,1292,1291,0.8262856362484797,-0.8262856362484797,1297.3696306840757,-621.2869272721055,1310,-14.873141452472636,,1188.7258504627464
10,191.67968249999998,1311,1304,0.8012221689422371,-0.11446030984889101,1300.878885145415,-648.061846702868,1303,0.9156824787911281,,1190.7283258408997
11,192.22407132499998,1310,1296,0.7775424502505143,-0.0555387464464653,1304.0737459150737,-590.2405296709749,1287,1.277391168268702,,1197.0980189818233
12,192.7683548,1297,1294,0.7753865851703869,-0.25846219505679563,1306.967034025351,-452.00015754728065,1286,2.843084145624752,,1207.60245095942
13,193.312532925,1294,1298,0.7956261498651602,0.19890653746629006,1309.571570508546,-237.5179117026446,1287,-1.3923457622640303,,1222.0091428475928
14,193.8566057,1300,1300,0.7908861747409445,inf,1311.9001763969584,49.02902649208363,1294,-inf,,1240.0856157202445
15,194.400573125,1302,1300,0.7942231778648126,-0.3971115889324063,1313.9656727228876,403.4634756660448,1313,-4.368227478256469,,1261.599390651278
16,194.9444352,1312,1306,0.7947581770897779,-0.13245969618162964,1315.780880518633,821.6082544483852,1321,-1.1921372656346667,,1286.3179887145961
17,195.488191925,1330,1322,0.7914877943554887,-0.09893597429443608,1317.3586208164936,1299.2861814682537,1322,0.7914877943554887,,1314.0089309841019
18,196.0318433,1342,1332,0.7911116722494277,-0.07911116722494277,1318.7117146487694,1832.3200753547871,1321,1.661334511723798,,1344.4397385336981
19,196.575389325,1337,1333,0.7900325230816138,-0.19750813077040344,1319.8529830477594,2416.5327547371367,1321,3.160130092326455,,1377.3779324372877
20,197.11883,1322,1328,0.798472358442206,0.13307872640703433,1320.7952470457628,3047.7470382444453,1320,-0.26615745281406866,,1412.5910337687735
21,197.662165325,1327,1331,0.7981102791346143,0.19952756978365357,1321.5513276750796,3721.7857445058576,1333,1.1971654187019214,,1449.8465636020583
22,198.2053953,1333,1335,0.8040599544843242,0.4020299772421621,1322.1340459680086,4434.471692150524,1339,2.4121798634529728,,1488.9120430110452
23,198.74851992499998,1322,1327,0.8074165803696804,0.1614833160739361,1322.5562229568495,5181.6276998075755,1320,-0.3229666321478722,,1529.5549930696363
24,199.2915392,1322,1324,0.8060625325032217,0.40303126625161084,1322.8306796739018,5959.076586106172,1313,-3.6272813962644976,,1571.5429348517355
25,199.83445312499998,1347,1341,0.8122546130835153,-0.13537576884725255,1322.970237151439,6762.641169675288,1329,2.436763839250546,-inf,1614.643389431213
26,200.3772617,1341,2354,0.8144257223941842,0.0008039740596191354,1323.5307028471511,7477.524156832402,1370,0.02331524772895493,-inf,1652.3719223538155
27,200.919964925,1320,6488,0.8150182986479615,0.00015770477915014733,1323.3336881922328,8208.580692654265,1576,0.04037242346243772,-inf,1690.4320369656973
28,201.4625628,1310,11256,0.8232603193402961,8.277300616733321e-05,1322.6741036036804,8957.698928627884,1834,0.0433730552316826,-inf,1729.094815284571
29,202.005055325,1305,13279,0.8194894939197722,6.843907582426694e-05,1322.4718793177396,9723.495390608887,1958,0.04469071651324631,-inf,1768.4467371854064
30,202.5474425,1305,14176,0.8269202298982968,6.424677413552147e-05,1322.638768715008,10503.147047498042,2013,0.0454867160879492,-inf,1808.1819293754888
31,203.089724325,1310,14828,0.8298864771900701,6.139121742787914e-05,1322.663797594484,11295.06401050965,2058,0.045920630636053596,-inf,1847.8477202201282
32,203.63190079999998,1316,15469,0.8293789756785952,5.860093094598991e-05,1322.4533285011864,12100.74271217898,2092,0.04547432241408817,-inf,1887.6841604565993
33,204.173971925,1318,15999,0.8303112569560028,5.6556859679586055e-05,1322.5734218215334,12919.187184307437,2119,0.04530204460334843,-inf,1928.5066252915892
34,204.71593769999998,1327,16420,0.832804584655424,5.5178200798742724e-05,1322.436544429067,13740.077850007665,2132,0.04441845164298789,inf,1969.8050691974527
35,205.257798125,1331,16736,0.8371769300637781,5.434449399959611e-05,1322.1740243266863,14555.914856508363,2127,0.04325821722367851,inf,2010.958028494378
36,205.7995532,1323,17147,0.8381556767340916,5.2967370875511355e-05,1322.4573376520166,15363.134748238625,2148,0.04369808097229687,inf,2051.416521325472
37,206.34120292499998,1327,17745,0.840625124319978,5.120143283712864e-05,1322.5645880993654,16163.226007383777,2188,0.04408443367276776,inf,2090.573920134051
38,206.88274729999998,1320,18376,0.8415937915656597,4.9342975584290554e-05,1322.058189313436,16955.488210378164,2215,0.04416196314794005,inf,2128.238827606473
39,207.424186325,1311,18720,0.8431564976534377,4.843221883241069e-05,1321.152030623545,17730.42725769519,2215,0.04378272582449926,inf,2164.0166481686597
40,207.96552,1309,19067,0.844165982526256,4.753722167621669e-05,1320.387868354864,18484.914290244044,2218,0.043211334503680976,0.14601598981412453,2198.517316360464
41,208.506748325,1315,19487,0.8476484869242688,4.6645855542827905e-05,1319.648395207114,19221.388276064772,2240,0.04314741637711581,0.0011241759356913185,2232.848966001452
42,209.0478713,1320,19873,0.8491768105118729,4.5770323425422996e-05,1318.9169177104552,19936.431380098828,2270,0.04348180725415185,-0.06761193875215152,2266.1764479376216
43,209.588888925,1318,20415,0.8502736512177026,4.4523938378682653e-05,1318.6010328659513,20622.718906430106,2289,0.04323274416570086,-0.08078369832044205,2297.787809463364
44,210.12980119999997,1314,20882,0.8513731200582484,4.350843826953436e-05,1318.9851638768462,21278.093546852295,2292,0.042551252627604605,-0.06286612831532172,2327.838524088836
45,210.670608125,1316,21352,0.8534308197221572,4.2594870219712377e-05,1319.6256087340341,21889.57104351133,2311,0.042381895868613816,0.011907470892709653,2355.383859204014
46,211.2113097,1307,21764,0.8557212941711507,4.183024364135263e-05,1320.0315748940832,22454.719427393167,2323,0.04249952753961427,-0.006733826374585554,2380.276835262361
47,211.751905925,1311,22012,0.8575135521308375,4.1423774316740134e-05,1320.4295454030416,22970.514507689426,2329,0.042169402254441456,0.01985218108702805,2403.045867403519
48,212.29239679999998,1321,22356,0.8580327959771828,4.079072003694713e-05,1320.7162110126817,23426.095404198964,2357,0.042259185958277226,0.0923288022656725,2422.814831592968
49,212.83278232499998,1327,22804,0.8587529108532552,3.998477025903316e-05,1320.9426940587302,23826.700151758352,2382,0.042183932623279984,0.09019297565892137,2438.740288568211
50,213.37306249999997,1329,23282,0.8598387128136875,3.9167253350962855e-05,1321.459738612401,24173.760379623087,2401,0.04198729559223218,-0.020877938146126693,2451.4574056037036
51,213.91323732499998,1327,23847,0.8611437003932625,3.823906307252498e-05,1322.1030374413663,24459.248136990172,2429,0.04213944750592252,0.04286564066242261,2460.708487168405
52,214.45330679999998,1343,24516,0.8624756676121401,3.721899053260864e-05,1322.7265170218777,24718.109968515233,2459,0.04153639343439124,0.04219696745760845,2467.6384063058717
53,214.993270925,1347,25068,0.8630074298534857,3.6381578763689795e-05,1322.4631588484199,25054.448096219137,2486,0.04143861821184268,0.041963108040904015,2477.751953611586
54,215.5331297,1327,25595,0.8629495266956824,3.555915306970835e-05,1321.4827515911772,25502.903689777308,2500,0.0417108865507679,0.041809402610465285,2493.55942376946
55,216.07288312499998,1318,26140,0.8648478670709356,3.48419896491393e-05,1320.8591134566782,25990.400394119413,2519,0.0418452295686163,0.041695242387157154,2512.457722711678
56,216.61253119999998,1326,26652,0.8650803831098881,3.4157797643129124e-05,1320.4413463498352,26481.505538063775,2546,0.04167251312461753,0.04162377195883343,2532.663661691043
57,217.152073925,1324,27000,0.8652291434094919,3.3697972558400526e-05,1320.362998029375,26980.21513511013,2567,0.041886579890091855,0.04157841385784344,2554.0363994653976
58,217.69151129999997,1310,27253,0.8680312398394996,3.345916971204177e-05,1320.6811026297057,27493.167319757562,2569,0.04212509466746059,0.04152041934738111,2576.04897053156
59,218.230843325,1311,27733,0.868212549145114,3.28594561026839e-05,1320.7828263380568,28021.800493781884,2585,0.04186294707481929,0.041469085825627416,2598.7494167477817
60,218.77006999999998,1317,28363,0.868144571802742,3.2098815788018264e-05,1320.9923894085682,28559.851887924437,2603,0.04127907710339149,0.04140106451355485,2621.6900949058368
61,219.30919132499997,1313,29048,0.8681762475955156,3.1302550841734835e-05,1321.2220208837998,29096.836259031363,2621,0.04094373650098916,0.04129641624099234,2643.6490520736093
62,219.84820729999998,1315,29567,0.868951283960652,3.0757159987280616e-05,1321.1550431493097,29634.57971867936,2642,0.04081475130312138,0.04120497273175173,2665.5273732133855
63,220.38711792499998,1319,29990,0.8691522224557424,3.0314681122239978e-05,1321.2019751296493,30184.41144759733,2678,0.04119765164512413,0.04113070303889327,2688.4077782055706
64,220.9259232,1325,30624,0.8692686507714266,2.9668884629899537e-05,1321.1930508052026,30753.405558449205,2727,0.041595776251119154,0.04105860432299795,2712.0091961312305
65,221.464623125,1322,31262,0.8701622824311823,2.906353648734744e-05,1321.045255838159,31331.011868897902,2759,0.04176430193231827,0.040975294849287434,2735.3981517134634
66,222.0032177,1319,31690,0.86932404321908,2.8623490936060058e-05,1320.411221092185,31911.044848127323,2760,0.04124645043886254,0.040881915425308106,2758.244512899447
67,222.54170692499997,1326,32088,0.8705973257298546,2.8301063836221786e-05,1319.9700559468815,32490.523114905718,2771,0.04089503724334048,0.040785358803043854,2780.9589798182883
68,223.0800908,1331,32599,0.8704844215444587,2.783946595703143e-05,1319.6239325918793,33068.45638632748,2792,0.04067345976322292,0.04070958498443717,2804.2791003193197
69,223.61836932499997,1323,33032,0.8703398065724872,2.7447721674366496e-05,1318.773811411332,33647.50569661763,2797,0.040457941748016216,0.04063534322238927,2827.286303200471
70,224.1565425,1312,33768,0.8697053263836744,2.6796442148868447e-05,1317.9309610636456,34225.78117284584,2827,0.0405966098555357,0.040535913135071495,2849.4221160161633
71,224.69461032499999,1304,34472,0.8700422735223692,2.6231375829786817e-05,1317.2387823053496,34802.411198440976,2855,0.04068486391199935,0.04042753182423439,2871.231330267901
72,225.23257279999999,1307,35169,0.8700397124616915,2.5693689459030523e-05,1316.2726222564245,35373.76690298693,2873,0.0402363176928418,0.04033200716077754,2892.920904210686
73,225.77042992499997,1317,36139,0.8700678242154535,2.498615312777708e-05,1315.4123083195293,35933.37994065481,2909,0.039777955779421115,0.04022912636220468,2913.920451199291
74,226.30818169999998,1308,36813,0.8699872642519537,2.4503232340570447e-05,1314.9085369996806,36480.8837572758,2942,0.040038281644492114,0.0401259761994818,2934.570771704852
75,226.84582812499997,1295,37282,0.8700242014773532,2.417606917712933e-05,1314.4748691929349,37022.70067272121,2955,0.04013227483403469,0.04002741061008629,2955.210604996659
76,227.3833692,1316,37872,0.8696880407569096,2.3790569010748158e-05,1314.0031484291578,37554.84253323899,2993,0.03989678423102466,0.039928788934898,2975.384787877358
77,227.92080492499997,1315,38183,0.87010037851645,2.36004225484553e-05,1313.2879793426555,38074.24671000403,3016,0.04014431875492246,0.03983914010727919,2994.987995198022
78,228.45813529999998,1327,38366,0.8693067287349536,2.3470037763842265e-05,1313.1282475254,38584.47029377715,3033,0.040039884425114906,0.03973104116740358,3014.093365648088
79,228.99536032499998,1344,38685,0.8691277262341458,2.327542717747639e-05,1313.3379238487598,39077.69002695342,3055,0.0398242559006621,0.03961971416930035,3032.647896894549
80,229.53248,1328,39277,0.86926662631248,2.2906180039328573e-05,1312.8254547101606,39547.118349225726,3062,0.03971931618819575,0.03952061092097067,3049.8495322656777
81,230.069494325,1319,40175,0.8686441253792921,2.2355469564013078e-05,1312.0111440802486,40000.226415093566,3071,0.03916678267615091,0.03943157011105134,3066.356519966418
82,230.60640329999998,1309,40793,0.868302707705708,2.1991254880602474e-05,1311.4353892500146,40430.003624090365,3078,0.03890252988378578,0.03934318472501063,3082.042333914639
83,231.143206925,1297,41203,0.8687016218294412,2.17686969836476e-05,1310.8041631746787,40817.01415660526,3094,0.03911834847961474,0.03927054465950661,3096.2743210491144
84,231.67990519999998,1302,41433,0.8683284847277679,2.1637349797607034e-05,1310.025368637996,41159.76930394721,3102,0.038947229635692665,0.03920044578431466,3108.188158282121
85,232.216498125,1305,41714,0.8683608504247778,2.1489293237268377e-05,1309.4284355251284,41475.1556773645,3109,0.03876668500003215,0.03911774226217052,3118.4145960270307
86,232.75298569999998,1308,42198,0.868249886800152,2.1233795226220396e-05,1308.8467462456429,41767.987746041006,3136,0.03881537767353088,0.03902134631990067,3127.233029060621
87,233.289367925,1310,42686,0.867778574191436,2.09729933824303e-05,1308.1734127613058,42032.097510701584,3157,0.03873711877734876,0.0389183377592972,3134.5355727195933
88,233.8256448,1310,42954,0.8676471171202086,2.083486497743273e-05,1307.3279575981085,42255.89404063431,3161,0.03856533507322798,0.038819346603203325,3140.040431266786
89,234.36181632499998,1304,42970,0.8677489292852631,2.0826307523766696e-05,1306.612176946225,42430.214863303,3161,0.03867445307163475,0.03874313397109981,3144.2746381570896
90,234.89788249999998,1296,42964,0.8672589311593729,2.0813548314278894e-05,1306.0603864186935,42577.512990100884,3161,0.03881726760613014,0.03868814929896222,3148.2564044485116
91,235.433843325,1306,43061,0.8668004592010585,2.0759201513616536e-05,1305.2414097714307,42707.6371378732,3169,0.03867439241986761,0.03864291253456808,3151.4719472694137
92,235.9696988,1302,43251,0.8665578153052318,2.065741293726267e-05,1304.4013001426738,42803.3949353318,3179,0.03877396408324203,0.03859049224076434,3152.92292011138
93,236.505448925,1301,43367,0.8666098942893835,2.0601195604273845e-05,1303.61052345464,42857.796529931904,3170,0.03850363458438782,0.03852951076240099,3152.1217694624415
94,237.04109369999998,1315,43482,0.8664654382940954,2.0548425031282648e-05,1302.8996126752338,42878.693016828554,3179,0.038302264258310854,0.0384610754760951,3149.577883983722
95,237.576633125,1310,43523,0.8658853313998153,2.0512290796669635e-05,1302.1165598314549,42862.57659290049,3188,0.03852208211614557,0.03840175002737697,3145.8160320731467
96,238.11206719999998,1305,43518,0.8659634438688039,2.0514141233004143e-05,1301.5288001993001,42813.405241340995,3191,0.038689670365445815,0.03836324378263341,3141.762486126466
97,238.64739592499998,1302,43491,0.8653764850454776,2.0511898481724565e-05,1300.8021699245485,42742.28444585299,3175,0.03841878585627011,0.038332761535982696,3136.822170377525
98,239.1826193,1298,43406,0.865240351462597,2.054812271925993e-05,1300.2609572130493,42661.78429862429,3165,0.03836334511685829,0.03829012674843966,3131.1780787786215
99,239.71773732499997,1292,43305,0.8654717432609225,2.06000938581135e-05,1299.972456907266,42590.23810278746,3161,0.03850157542081413,0.038244341400604606,3126.235860381829
100,240.25275,1293,42964,0.8654328986505,2.076822967172614e-05,1299.397721352667,42520.46091644123,3139,0.03833815197400646,0.03821112461078585,3121.5963215474267
101,240.787657325,1295,42661,0.8649750843904328,2.0910290682938472e-05,1298.7710933429728,42446.76919069433,3121,0.03818219078704565,0.03817574501711146,3116.494960248191
102,241.3224593,1301,42452,0.8650023747478218,2.1020203026604987e-05,1298.8093501551314,42384.46116559751,3112,0.03806758768118163,0.03813705198176038,3112.3489546761507
103,241.85715592499997,1300,42155,0.864426750181391,2.1158407788064888e-05,1298.6413055788105,42322.589277219515,3101,0.038106292426304866,0.03811264561868317,3108.612312849608
104,242.3917472,1295,41940,0.8640504083213235,2.1258467420871535e-05,1298.7521121655961,42253.9759450942,3087,0.03809517361820179,0.038081790495234615,3104.4964551857884
105,242.92623312499998,1302,41879,0.8638615542876957,2.1289438703888798e-05,1299.65138508231,42189.69747899079,3085,0.037959069209033726,0.03804676702878397,3101.1333439035398
106,243.46061369999998,1304,41522,0.8647030136247108,2.1500398170588064e-05,1300.3054655824349,42146.26596298816,3062,0.03779769998389382,0.038015796567841556,3098.6243403020994
107,243.994888925,1305,41298,0.863747888775786,2.159747677783077e-05,1300.5550295589685,42130.36560284411,3048,0.03764440202375904,0.03796550461139018,3096.009694443756
108,244.52905879999997,1307,41542,0.8628771528607923,2.14459339595077e-05,1300.6138530883804,42131.0085845651,3049,0.03735881695746241,0.03791112589570944,3093.839747219584
109,245.063123325,1298,41731,0.8633129275796555,2.135169113297691e-05,1300.5497746268068,42150.08731794524,3060,0.03762167977630532,0.03786828863708088,3092.8962150897505
110,245.59708249999997,1290,41535,0.8623491049005171,2.1427484281290027e-05,1300.7267661781443,42195.42193481085,3063,0.03799092963072722,0.03781737784808775,3092.852816598278
111,246.130936325,1293,41285,0.862505803534046,2.156695848004716e-05,1300.957009218757,42278.89895580793,3058,0.03806568171728324,0.03777018926755765,3094.7718861128765
112,246.66468479999997,1290,41306,0.8631762817630669,2.157077873258364e-05,1301.4280731160138,42408.29814944765,3056,0.03809399524174271,0.0377291562000899,3099.2216358240817
113,247.19832792499997,1296,41609,0.8629529675416884,2.1406319736603287e-05,1302.2620444403924,42585.66382024427,3068,0.037931998573261023,0.03768266844365195,3105.8059299190777
114,247.7318657,1295,42215,0.8621360146885437,2.1068817563258645e-05,1302.9781422002513,42804.563931232056,3082,0.0376499769855432,0.03763174635044839,3113.842125529397
115,248.265298125,1296,42354,0.8624878814902607,2.1006573176731957e-05,1303.4605313823392,43057.772339123505,3081,0.037496733120466544,0.03758285124357463,3123.1918729755453
116,248.79862519999998,1304,42196,0.862427427307537,2.1090370422271764e-05,1303.8081949760785,43337.41735939577,3086,0.037583040092488286,0.037538446116298835,3133.7370042355965
117,249.33184692499998,1304,42439,0.8621956715984717,2.09601476017618e-05,1304.3161566513147,43634.29606559522,3096,0.03756058450235714,0.03749018224446972,3145.016421662945
118,249.8649633,1313,42962,0.8614594306460737,2.068379626512218e-05,1304.9000883371966,43964.15415977628,3136,0.03770656059131773,0.03743697289904682,3157.385920405838
119,250.397974325,1322,43435,0.861591555373828,2.04590400915116e-05,1305.2705384040157,44333.976216901,3177,0.03795151936975402,0.03737547188507309,3170.760719382032
