,x_(nm),baseline_dark,baseline_light,baseline_mirror,baseline_calibration,baseline_dark_smoothed,baseline_light_smoothed,raw_signal,calibrated_signal,calibrated_signal_smoothed,raw_signal_smoothed
0,186.23,1305,1305,0.3621226043733797,inf,1286.4487574742843,4208.584352302458,1305,,,1570.3798059136573
1,186.775442325,1299,1301,1.18800459154587,0.594002295772935,1292.6470917088006,3214.4123686565554,1319,11.880045915458698,,1482.7093542787218
2,187.3207793,1299,1295,1.908567993433533,-0.4771419983583832,1298.3878157100607,2344.62425470754,1331,-15.268543947468263,,1406.3194090408297
3,187.86601092499998,1298,1294,1.7279185264672412,-0.4319796316168103,1303.6859913841363,1594.9747219029641,1321,-9.935531527186637,,1340.8184652380546
4,188.41113719999998,1297,1305,1.043047789334166,0.13038097366677076,1308.5566806370991,961.2184816903814,1309,1.5645716840012491,,1285.8150179084696
5,188.956158125,1303,1315,0.840365554154959,0.07003046284624657,1313.0149453750216,439.1102455173436,1306,0.2100913885387397,,1240.917562090148
6,189.50107369999998,1299,1321,0.8202728553565946,0.03728512978893612,1317.0758475039752,24.404724831403655,1303,0.14914051915574447,,1205.7345928211632
7,190.045883925,1317,1340,0.837733819880384,0.0364232095600167,1320.7544489300317,-287.1433689198848,1319,0.0728464191200334,,1179.8746051395883
8,190.59058879999998,1325,1342,0.8116271105193998,0.04774277120702352,1324.0658115592635,-499.7793242889693,1332,0.33419939844916463,,1162.946094083497
9,191.135188325,1333,1340,0.8262856362484797,0.11804080517835425,1327.0249972977422,-617.748429828298,1340,0.8262856362484797,,1154.557554690962
10,191.67968249999998,1347,1347,0.8012221689422371,inf,1329.6470680515395,-645.295974090317,1341,-inf,,1154.3174820000568
11,192.22407132499998,1332,1341,0.7775424502505143,0.08639360558339047,1331.9470857267277,-586.6672456274755,1337,0.4319680279169524,,1161.8343710488548
12,192.7683548,1321,1338,0.7753865851703869,0.04561097559825805,1333.9401122293784,-446.1075329922205,1330,0.41049878038432247,,1176.7167168754295
13,193.312532925,1317,1341,0.7956261498651602,0.03315108957771501,1335.6412094655636,-227.86212473699743,1330,0.4309641645102951,,1198.5730145178534
14,193.8566057,1325,1343,0.7908861747409445,0.043938120818941356,1337.0654393413552,63.82369058574568,1337,0.5272574498272963,,1227.0117590142008
15,194.400573125,1338,1348,0.7942231778648126,0.07942231778648126,1338.227863762825,424.7046244235644,1340,0.15884463557296252,,1261.6414454025442
16,194.9444352,1351,1367,0.7947581770897779,0.04967238606811112,1339.1435446360451,850.5353882240051,1349,-0.09934477213622224,,1302.070568720957
17,195.488191925,1351,1374,0.7914877943554887,0.034412512798064725,1339.8275438670873,1337.070693434624,1361,0.34412512798064726,,1347.907624007513
18,196.0318433,1350,1380,0.7911116722494277,0.026370389074980922,1340.2949233620236,1880.0652515029774,1366,0.42192622519969475,,1398.7611063002846
19,196.575389325,1344,1366,0.7900325230816138,0.035910569230982445,1340.5607450269256,2475.2737738766104,1363,0.6823008153886665,,1454.2395106373463
20,197.11883,1345,1350,0.798472358442206,0.1596944716884412,1340.6400707678654,3118.450972003082,1353,1.2775557735075296,,1513.9513320567703
21,197.662165325,1358,1355,0.7981102791346143,-0.2660367597115381,1340.5479624909149,3805.35155732994,1355,0.7981102791346144,,1577.5050655966306
22,198.2053953,1361,1362,0.8040599544843242,0.8040599544843242,1340.299482102146,4531.730241304742,1351,-8.040599544843243,,1644.5092062949996
23,198.74851992499998,1343,1366,0.8074165803696804,0.03510506871172524,1339.9096915076302,5293.3417353750365,1341,-0.07021013742345047,,1714.572249189952
24,199.2915392,1333,1360,0.8060625325032217,0.02985416787048969,1339.39365261344,6085.940750988375,1353,0.5970833574097938,,1787.3026893195592
25,199.83445312499998,1350,1378,0.8122546130835153,0.02900909332441126,1338.7664273256216,6905.281999592159,1370,0.5801818664882252,,1862.3090217218607
26,200.3772617,1353,2390,0.8144257223941842,0.0007853671382779019,1338.7182948650902,7632.925071915413,1455,0.08010744810434599,-inf,1928.6199687421768
27,200.919964925,1332,6575,0.8150182986479615,0.0001554488458226133,1338.1581915784925,8377.655915196106,1846,0.07990070675282324,-inf,1996.1268658406375
28,201.4625628,1325,11444,0.8232603193402961,8.135787324244451e-05,1337.1179415162037,9141.852250333923,2280,0.07769676894653452,-inf,2065.451403202751
29,202.005055325,1325,13511,0.8194894939197722,6.724844033479175e-05,1336.028222609773,9924.34283902221,2478,0.07753745170601488,-inf,2135.980905569734
30,202.5474425,1319,14439,0.8269202298982968,6.302745654712628e-05,1334.9136560284235,10719.812860993248,2567,0.0786582657708136,inf,2207.3250356746053
31,203.089724325,1317,15142,0.8298864771900701,6.002795495045715e-05,1333.6153253754076,11528.001653491363,2616,0.07797631348064384,inf,2279.670366259668
32,203.63190079999998,1318,15847,0.8293789756785952,5.708438128423121e-05,1331.9909624226793,12352.319282429717,2669,0.07712099911499637,inf,2353.0409748804736
33,204.173971925,1316,16354,0.8303112569560028,5.521420780396348e-05,1331.0923463724857,13189.57856350062,2706,0.07674774884750923,inf,2427.701895852634
34,204.71593769999998,1318,16736,0.832804584655424,5.4015085267571924e-05,1330.5923576977707,14029.786948741494,2743,0.07697149650629,inf,2502.4754807582926
35,205.257798125,1330,17064,0.8371769300637781,5.3208143514921704e-05,1330.4982445808257,14866.52551586644,2783,0.07731143252718124,inf,2577.1125280300303
36,205.7995532,1333,17478,0.8381556767340916,5.1914256843238875e-05,1330.9349928650447,15694.515277808936,2829,0.07766372823748535,-0.059768933602887674,2651.3229744727573
37,206.34120292499998,1336,18113,0.840625124319978,5.010580701674781e-05,1331.0022424063714,16514.53160886965,2887,0.07771410668297585,-0.043621607208102015,2725.169448911588
38,206.88274729999998,1335,18795,0.8415937915656597,4.820124808508933e-05,1330.5980429907556,17325.528551042727,2933,0.07702559443997276,-0.02541729223574678,2798.042424516923
39,207.424186325,1339,19215,0.8431564976534377,4.7166955563517435e-05,1329.9529547667871,18118.444336224708,2958,0.07636330105733473,-0.003857036224664421,2868.9771002740167
40,207.96552,1339,19550,0.844165982526256,4.635472969777914e-05,1329.6471720763523,18890.697433690093,2969,0.07555820940737999,0.02369700566867483,2937.5923803483092
41,208.506748325,1330,19884,0.8476484869242688,4.5685484904832854e-05,1329.5011212031727,19643.25092301034,3002,0.07638613076088054,0.042852677421888447,3003.779745860551
42,209.0478713,1338,20306,0.8491768105118729,4.4768916623358964e-05,1329.8913678678762,20376.030600919225,3051,0.0766891541758139,0.05508094286052784,3068.4455140546193
43,209.588888925,1333,20863,0.8502736512177026,4.3536797297373405e-05,1330.2930077691199,21081.66789734721,3110,0.07736488879743254,0.0815969197083414,3130.938413101029
44,210.12980119999997,1312,21310,0.8513731200582484,4.257291329424185e-05,1330.6091191193204,21756.096264920645,3149,0.07820644172152227,0.11317484195376316,3190.8654782667177
45,210.670608125,1313,21806,0.8534308197221572,4.164499193491227e-05,1330.9962400054105,22385.695463090466,3189,0.07812600486989542,0.15625563430920872,3246.9645518584166
46,211.2113097,1324,22272,0.8557212941711507,4.084978490410305e-05,1331.4812566535793,22967.16401277448,3226,0.077696290887604,0.22331894381218778,3298.0645541234735
47,211.751905925,1327,22515,0.8575135521308375,4.047166094632988e-05,1332.0565131712806,23498.85664454416,3241,0.07746275905127539,0.2832351158414619,3343.668576864645
48,212.29239679999998,1334,22824,0.8580327959771828,3.992707287004108e-05,1332.9028290561253,23969.020068404265,3279,0.07765815673222991,0.06246321383583293,3383.4751863008705
49,212.83278232499998,1330,23314,0.8587529108532552,3.906263240780819e-05,1333.8452739586144,24382.78185236312,3319,0.07769557585913049,0.052947705302998985,3418.230469546243
50,213.37306249999997,1329,23844,0.8598387128136875,3.8189594173381635e-05,1334.4644725814599,24740.64003714646,3342,0.07687565307101724,0.06398185921681611,3448.3774264422086
51,213.91323732499998,1330,24441,0.8611437003932625,3.726120463819231e-05,1335.2910371695593,25033.85277129672,3403,0.07724247721497265,0.07734374465379476,3472.2970395704792
52,214.45330679999998,1337,25129,0.8624756676121401,3.6250658524383834e-05,1336.1734580624448,25297.530680196123,3482,0.07775766253480332,0.07739284969370092,3492.969897392852
53,214.993270925,1350,25671,0.8630074298534857,3.548404382441041e-05,1335.9394323766987,25637.711590296007,3537,0.07760360384398557,0.07745035776432906,3520.3487281704456
54,215.5331297,1348,26172,0.8629495266956824,3.47627105501e-05,1335.3968379804496,26094.41128904342,3584,0.0777294207900236,0.07743870375563643,3557.5119255248587
55,216.07288312499998,1344,26784,0.8648478670709356,3.399559225907766e-05,1335.7143763165386,26594.631180773686,3632,0.07778191508876968,0.07741667786792528,3599.580579401503
56,216.61253119999998,1353,27323,0.8650803831098881,3.331075791720786e-05,1336.4975197625965,27099.007678542595,3672,0.07724764761000502,0.0774303839122819,3642.904641101654
57,217.152073925,1358,27627,0.8652291434094919,3.29372699154704e-05,1337.0437382499913,27609.529910076715,3699,0.07710614887211621,0.0774427887339331,3687.0466375228634
58,217.69151129999997,1350,27910,0.8680312398394996,3.26818990903426e-05,1337.263924437674,28135.029083330905,3724,0.07758682844047333,0.07743891099121261,3732.5145076897966
59,218.230843325,1344,28387,0.868212549145114,3.2104890328185264e-05,1337.3830437835256,28674.179528414592,3778,0.07814330305880293,0.07740481925685921,3778.22888400636
60,218.77006999999998,1338,28974,0.868144571802742,3.141353928943197e-05,1337.6175904323738,29221.71059367087,3829,0.07825112636997504,0.07735009904372189,3823.823053749728
61,219.30919132499997,1335,29662,0.8681762475955156,3.064836543211479e-05,1338.0602505152747,29771.20559922025,3874,0.07781619983213944,0.07729035139224795,3869.271308523335
62,219.84820729999998,1333,30215,0.868951283960652,3.0086257321537707e-05,1338.7731092436718,30322.379057282706,3899,0.07720133628706576,0.07723404203799462,3915.0789372351965
63,220.38711792499998,1336,30684,0.8691522224557424,2.9615381711044788e-05,1339.7358943577174,30885.007316133404,3926,0.076703838631606,0.07717325277342238,3961.914675304008
64,220.9259232,1337,31352,0.8692686507714266,2.8961141121819975e-05,1340.7208090783229,31464.63045595536,3980,0.0765442959849702,0.07708184689124949,4009.545221862253
65,221.464623125,1330,32006,0.8701622824311823,2.8366223837240263e-05,1342.0261840585033,32053.227207863667,4046,0.07704266394194455,0.07696332384583385,4057.6367528142555
66,222.0032177,1336,32509,0.86932404321908,2.7887083155906713e-05,1343.309520034403,32642.0470905337,4104,0.07719144617554978,0.07681961006582323,4105.464767038812
67,222.54170692499997,1332,32877,0.8705973257298546,2.759858379235551e-05,1343.8975741239635,33224.771614305464,4125,0.07708284453204894,0.07669564280787167,4152.632358603739
68,223.0800908,1334,33323,0.8704844215444587,2.7211992295615953e-05,1344.3835194454884,33805.67242746091,4157,0.07681945425052383,0.07656446683927473,4199.196606944584
69,223.61836932499997,1339,33747,0.8703398065724872,2.6855708669849643e-05,1344.7728827379751,34389.15982241887,4181,0.07632392403971268,0.07644153174622303,4245.953747536669
70,224.1565425,1333,34476,0.8697053263836744,2.624099587797346e-05,1344.695463090871,34971.889578472226,4225,0.07588896007909925,0.07633150955367689,4292.21350426955
71,224.69461032499999,1332,35200,0.8700422735223692,2.5689213225533517e-05,1344.7171396860374,35551.768873586494,4289,0.07596300350790261,0.07620417339701979,4337.484858094098
72,225.23257279999999,1346,35877,0.8700397124616915,2.5195902593660523e-05,1344.8453872114626,36126.251919635084,4373,0.0762679971510104,0.07605578437570566,4381.53086140108
73,225.77042992499997,1347,36852,0.8700678242154535,2.450550131574295e-05,1344.8351265034057,36688.820901944986,4454,0.07613859258801335,0.07589606083801732,4423.980905569691
74,226.30818169999998,1330,37542,0.8699872642519537,2.402483332188097e-05,1345.1418605177662,37239.474031121164,4490,0.07591847329714387,0.07573764476719168,4465.683752746296
75,226.84582812499997,1331,38044,0.8700242014773532,2.369798712928263e-05,1345.2183967926535,37785.74660807647,4515,0.07545439101963589,0.07557043712464591,4506.362884776465
76,227.3833692,1343,38699,0.8696880407569096,2.3281080435724104e-05,1344.601259371647,38323.40963555161,4588,0.07554710601392471,0.07538904371247504,4545.521484065237
77,227.92080492499997,1350,39074,0.87010037851645,2.3064902410042675e-05,1343.6154386282556,38849.054202812455,4624,0.07551449049047972,0.07523258151424626,4584.3344809621085
78,228.45813529999998,1374,39318,0.8693067287349536,2.291025534300426e-05,1342.769666357083,39366.10383021058,4658,0.07523727854642599,0.07510340271950826,4623.460214274301
79,228.99536032499998,1385,39574,0.8691277262341458,2.27585882383447e-05,1342.5560261840328,39863.87376837451,4697,0.07537644424539765,0.07498374923056604,4662.015946000953
80,229.53248,1361,40033,0.86926662631248,2.2477933034559372e-05,1342.4530340437805,40334.65070556447,4714,0.07536850946487757,0.07487984829792929,4699.053772452287
81,230.069494325,1339,40906,0.8686441253792921,2.1953752505352747e-05,1342.397811954945,40792.37314548383,4763,0.07516964857832781,0.07478115478221131,4735.2283177420995
82,230.60640329999998,1342,41596,0.868302707705708,2.1570594418087843e-05,1343.0624929216713,41228.78076513545,4791,0.07439698014798497,0.07467142592091298,4769.874515843982
83,231.143206925,1352,42034,0.8687016218294412,2.135346398479527e-05,1343.7858388638215,41621.985707489745,4803,0.07369080421152847,0.0745660926923515,4801.038075607509
84,231.67990519999998,1352,42306,0.8683284847277679,2.1202531736283827e-05,1344.101089492375,41971.44789236369,4832,0.07378481044226771,0.07448052777716184,4828.569548574054
85,232.216498125,1348,42572,0.8683608504247778,2.1064449117620267e-05,1344.3980384606414,42292.98197014574,4871,0.07421005424137621,0.07443257421680827,4855.021450089377
86,232.75298569999998,1352,42934,0.868249886800152,2.0880426309464482e-05,1344.5436589729975,42592.24224784172,4913,0.07435519808800302,0.07441627050442123,4880.85709755591
87,233.289367925,1346,43341,0.867778574191436,2.0663854606296844e-05,1344.7312283403671,42863.90310086217,4943,0.07432788501884975,0.07441074855867374,4905.087023488547
88,233.8256448,1340,43608,0.8676471171202086,2.0527281090191364e-05,1344.8383655348673,43095.94686176274,4961,0.07432928482758293,0.07439852585360944,4925.607057917412
89,234.36181632499998,1337,43703,0.8677489292852631,2.04822010405812e-05,1345.3005504088167,43279.41892228507,4972,0.07445280078251267,0.07437788555439007,4941.873926929168
90,234.89788249999998,1328,43737,0.8672589311593729,2.0449879298247373e-05,1345.7090987338074,43436.89798183341,4965,0.07437621100772569,0.07437401282758135,4956.764184919155
91,235.433843325,1326,43886,0.8668004592010585,2.0366552142882015e-05,1345.433373349314,43577.08124759255,4955,0.07391021772651883,0.07440734996649846,4971.0491743866405
92,235.9696988,1338,44169,0.8665578153052318,2.023202389169601e-05,1345.1395501596608,43682.85517225674,4970,0.07348271077463991,0.07446358705467489,4983.377970055852
93,236.505448925,1349,44326,0.8666098942893835,2.016450413684956e-05,1344.5909533624513,43745.55401028251,4996,0.07353994658709034,0.07453302595786292,4992.126322226909
94,237.04109369999998,1348,44403,0.8664654382940954,2.0124618239324012e-05,1343.711159935647,43775.8255000105,5004,0.0735756042829686,0.07460910401463841,4998.145008946879
95,237.576633125,1340,44409,0.8658853313998153,2.010460729062238e-05,1342.9489456159567,43771.2553851721,5012,0.07382411797116538,0.07468527542580061,5001.431153593417
96,238.11206719999998,1331,44455,0.8659634438688039,2.0080777383099988e-05,1342.2324627964133,43732.98987519453,5034,0.07435911864961925,0.07476724927019639,5002.299281976845
97,238.64739592499998,1332,44485,0.8653764850454776,2.0053680741674452e-05,1342.0791863915122,43671.98799519724,5059,0.07474006812422068,0.07486212446971906,5002.083082289424
98,239.1826193,1335,44407,0.865240351462597,2.0088232528384963e-05,1342.4992412058905,43601.004280956826,5069,0.07500946026098945,0.07498050598731452,5002.702779224802
99,239.71773732499997,1327,44259,0.8654717432609225,2.015912939674188e-05,1342.5754377222331,43540.42164035342,5065,0.07535482568502115,0.07511346393305945,5004.8833722167155
100,240.25275,1326,43901,0.8654328986505,2.0327255399894305e-05,1342.0655733991453,43480.56372737691,5066,0.0760239351956047,0.07525492836278164,5007.016059253794
101,240.787657325,1345,43604,0.8649750843904328,2.0468422925067625e-05,1341.621735486622,43417.358649119196,5059,0.07601972274370115,0.07539380693675692,5008.860812249332
102,241.3224593,1358,43399,0.8650023747478218,2.057520931347546e-05,1341.7395637500026,43367.679924799275,5043,0.07581964632015707,0.07553754639110824,5012.5644974970155
103,241.85715592499997,1362,43100,0.864426750181391,2.0710785140193372e-05,1342.0303970644604,43320.62071621018,5020,0.07576005204282736,0.07569323227771263,5017.27490996389
104,242.3917472,1357,42956,0.8640504083213235,2.077094180920992e-05,1342.790301026045,43267.83200072399,5000,0.07566854101095175,0.07583680162258029,5021.478697139137
105,242.92623312499998,1355,42991,0.8638615542876957,2.0747947792479963e-05,1343.8008561915071,43217.0181204549,5001,0.07564701765138195,0.0759801534316185,5026.139686063008
106,243.46061369999998,1352,42611,0.8647030136247108,2.0957924661884942e-05,1344.3220684499956,43184.148112074196,4977,0.07597247689933291,0.07613650846500168,5032.634601010119
107,243.994888925,1338,42368,0.863747888775786,2.1051618054491496e-05,1344.0417676504308,43175.22211148528,4962,0.07629106382947717,0.07628967576372651,5040.4367482841235
108,244.52905879999997,1343,42597,0.8628771528607923,2.0916205770611146e-05,1344.1157217603768,43182.81136605503,4999,0.07646964829735435,0.07640341843943618,5048.206573195219
109,245.063123325,1352,42809,0.8633129275796555,2.082429813010241e-05,1344.8508686493208,43208.168497586885,5042,0.07684166010007788,0.076477547987205,5056.139640761869
110,245.59708249999997,1349,42644,0.8623491049005171,2.088265177141342e-05,1345.4125574757945,43259.95349837965,5028,0.07682727586702996,0.07654625500833932,5066.007180230486
111,246.130936325,1349,42347,0.862505803534046,2.1037753147325384e-05,1345.9566241590717,43349.56109991083,4991,0.07661949696255906,0.07661495851562179,5079.087385897657
112,246.66468479999997,1344,42322,0.8631762817630669,2.1064382882597172e-05,1346.6058121361493,43480.05662642331,4977,0.07652690301247553,0.07667524767941335,5095.311898344147
113,247.19832792499997,1343,42620,0.8629529675416884,2.0906387759325736e-05,1347.2886135586048,43653.72103558321,5015,0.0767682558522441,0.07671214927422286,5114.059253890137
114,247.7318657,1331,43231,0.8621360146885437,2.057603853671942e-05,1347.7006274207538,43865.97374798892,5080,0.0771395684741611,0.07672830035056298,5134.733516047831
115,248.265298125,1330,43364,0.8624878814902607,2.0518815280255523e-05,1348.1638768714777,44112.01569684393,5080,0.07694555730095821,0.07671980915947846,5156.938028041306
116,248.79862519999998,1343,43225,0.862427427307537,2.059183962818244e-05,1348.6211918729496,44383.22763822425,5068,0.07670460261497959,0.07668112574206383,5179.647126775139
117,249.33184692499998,1348,43561,0.8621956715984717,2.042488502590367e-05,1349.0959931142008,44669.92733697167,5100,0.07663416861719058,0.07660334276680225,5201.844752995438
118,249.8649633,1352,44146,0.8614594306460737,2.0130378806516654e-05,1349.8979365330779,44991.28249790396,5159,0.0766363521164089,0.0764763338405209,5224.61020634659
119,250.397974325,1366,44537,0.861591555373828,1.9957646461138915e-05,1350.8462026319703,45352.571745678535,5208,0.07667727770369571,0.07631533212092814,5248.844164080627
