,x_(nm),baseline_dark,baseline_light,baseline_mirror,baseline_calibration,baseline_dark_smoothed,baseline_light_smoothed,raw_signal,calibrated_signal,calibrated_signal_smoothed,raw_signal_smoothed
0,186.23,1025,1026,0.3621226043733797,0.3621226043733797,1007.660861151427,3767.565313627482,1016,-3.259103439360417,,1155.246225308379
1,186.775442325,1033,1036,1.18800459154587,0.39600153051528997,1017.1428555166623,2829.941234019826,1020,-5.14801989669877,,1110.8713351104034
2,187.3207793,1033,1034,1.908567993433533,1.908567993433533,1025.974285447125,2009.6880233790125,1028,-9.542839967167664,,1072.3466902258408
3,187.86601092499998,1038,1028,1.7279185264672412,-0.17279185264672411,1034.174989908881,1302.8040991691073,1032,1.0367511158803446,,1039.4746438714176
4,188.41113719999998,1036,1025,1.043047789334166,-0.094822526303106,1041.764807867995,705.2878788541775,1025,1.043047789334166,,1012.05754926386
5,188.956158125,1028,1026,0.840365554154959,-0.4201827770774795,1048.7635782905327,213.13777989828986,1023,2.1009138853873974,,989.8977596198939
6,189.50107369999998,1035,1025,0.8202728553565946,-0.08202728553565945,1055.1911401425596,-177.64778023448844,1025,0.8202728553565946,,972.7976281562457
7,190.045883925,1052,1052,0.837733819880384,inf,1061.0673323901408,-471.070384080092,1038,-inf,,960.5595080896413
8,190.59058879999998,1068,1075,0.8116271105193998,0.11594673007419998,1066.4119939993418,-671.1316141744533,1046,-2.5508280616323997,,952.985752636807
9,191.135188325,1072,1070,0.8262856362484797,-0.41314281812423986,1071.244963936228,-781.8330530535045,1059,5.370856635615119,,949.8787150144689
10,191.67968249999998,1081,1071,0.8012221689422371,-0.0801222168942237,1075.586081166865,-807.1762832531808,1065,1.2819554703075793,,951.0407484393531
11,192.22407132499998,1075,1067,0.7775424502505143,-0.09719280628131428,1079.4551846573177,-751.1628873094137,1053,2.1382417381889143,,956.2742061281857
12,192.7683548,1066,1060,0.7753865851703869,-0.12923109752839781,1082.872113373652,-617.7944477581391,1036,3.8769329258519343,,965.381441297693
13,193.312532925,1063,1060,0.7956261498651602,-0.2652087166217201,1085.8567062819327,-411.07254713528664,1028,9.282305081760203,,978.1648071646009
14,193.8566057,1070,1070,0.7908861747409445,inf,1088.4288023482256,-134.99876797679326,1040,-inf,,994.4266569456356
15,194.400573125,1090,1084,0.7942231778648126,-0.13237052964413543,1090.6082405385962,206.42530718141006,1042,6.3537854229185005,,1013.9693438575235
16,194.9444352,1093,1095,0.7947581770897779,0.39737908854488896,1092.4148598191096,609.1980958033914,1053,-15.895163541795558,,1036.5952211169904
17,195.488191925,1108,1103,0.7914877943554887,-0.15829755887109773,1093.8684991558312,1069.3180153532126,1074,5.382117001617322,,1062.1066419407625
18,196.0318433,1129,1110,0.7911116722494277,-0.0416374564341804,1094.9889975148265,1582.783483294946,1083,1.9153229959722986,,1090.305959545566
19,196.575389325,1104,1105,0.7900325230816138,0.7900325230816138,1095.7961938621606,2145.5929170926547,1076,-22.120910646285186,,1120.9955271481274
20,197.11883,1085,1099,0.798472358442206,0.057033739888729,1096.3099271638994,2753.7447342104097,1072,-0.741438618553477,,1153.977697965172
21,197.662165325,1088,1107,0.7981102791346143,0.0420058041649797,1096.5500363861079,3403.2373521122704,1074,-0.5880812583097158,,1189.0548252134265
22,198.2053953,1103,1098,0.8040599544843242,-0.16081199089686485,1096.5363604948514,4090.0691882623087,1076,4.341923754215351,,1226.029262109617
23,198.74851992499998,1102,1076,0.8074165803696804,-0.031054483860372326,1096.2887384561955,4810.2386601245935,1077,0.7763620965093082,,1264.7033618704697
24,199.2915392,1105,1083,0.8060625325032217,-0.03663920602287371,1095.8270092362056,5559.744185163185,1087,0.6595057084117268,,1304.8794777127105
25,199.83445312499998,1131,1114,0.8122546130835153,-0.04777968312255972,1095.1710118009257,6334.584180842026,1104,1.2900514443091124,-inf,1346.3599628530399
26,200.3772617,1125,2079,0.8144257223941842,0.0008536957257800672,1094.6873541869368,7024.544451742828,1146,0.01792761024138141,-inf,1383.0005889147849
27,200.919964925,1083,6067,0.8150182986479615,0.00016352694595665358,1093.7130852340724,7731.630705112087,1328,0.040064101759380126,,1420.3287730186141
28,201.4625628,1070,10643,0.8232603193402961,8.59981530701239e-05,1092.5765022990117,8455.702530068469,1543,0.040677126402168605,,1458.6415773856431
29,202.005055325,1081,12587,0.8194894939197722,7.122279627322894e-05,1092.015832748173,9195.492128926868,1655,0.040881885060833414,,1498.4367482841908
30,202.5474425,1090,13450,0.8269202298982968,6.690293122154506e-05,1091.3557498470877,9948.217490769704,1712,0.04161362321980103,,1539.15409182538
31,203.089724325,1094,14105,0.8298864771900701,6.378345071017371e-05,1090.0692654420052,10715.13771546334,1752,0.0419695105672943,,1580.4217762576427
32,203.63190079999998,1098,14774,0.8293789756785952,6.064485051759251e-05,1088.3841763120133,11496.420168067007,1800,0.04257268506334994,,1622.266778409446
33,204.173971925,1089,15280,0.8303112569560028,5.8509707346628344e-05,1087.1909443022284,12288.455729461362,1833,0.04353122226589149,-inf,1665.08158735189
34,204.71593769999998,1085,15631,0.832804584655424,5.725316820125285e-05,1086.6100251421115,13083.624498855896,1848,0.043684167337555924,inf,1708.5746902534274
35,205.257798125,1085,15943,0.8371769300637781,5.634519653141595e-05,1085.9033273686625,13875.345511789357,1867,0.04406194368756727,inf,1752.6667421685318
36,205.7995532,1075,16396,0.8381556767340916,5.4706329660863624e-05,1085.5350744071004,14660.58533602092,1886,0.0443668333549604,inf,1796.5333756143623
37,206.34120292499998,1081,16952,0.840625124319978,5.296610952806868e-05,1084.7101859611562,15439.64338943095,1918,0.04433263367499349,inf,1839.8213096559025
38,206.88274729999998,1086,17554,0.8415937915656597,5.110479667024895e-05,1083.0295816439575,16209.372262112083,1951,0.04420564911976534,inf,1882.181431062955
39,207.424186325,1071,17942,0.8431564976534377,4.997667581372993e-05,1081.172506738524,16960.57251579845,1962,0.04452921815003337,inf,1923.0813155450492
40,207.96552,1053,18226,0.844165982526256,4.915658199069795e-05,1079.4579039162627,17691.55063534814,1980,0.045568151505377,0.308349550362739,1963.218645948908
41,208.506748325,1046,18606,0.8476484869242688,4.827155392507225e-05,1078.0099209494913,18404.730956533207,2000,0.04605106244451893,0.6140244955223629,2002.919522525953
42,209.0478713,1064,19078,0.8491768105118729,4.713982516442061e-05,1076.3136650886563,19096.940995265664,2030,0.04553707110883031,0.2407767851684317,2042.0566264241152
43,209.588888925,1078,19608,0.8502736512177026,4.588632764261752e-05,1075.5748035062877,19762.509977575555,2063,0.04519803272797825,0.46727277997288996,2080.373915603938
44,210.12980119999997,1068,20003,0.8513731200582484,4.496293213933184e-05,1076.3513103354342,20398.857233459035,2083,0.04563737612142182,0.6155834390458677,2117.5704545968924
45,210.670608125,1065,20457,0.8534308197221572,4.40094275846822e-05,1076.367143083628,20992.766517927525,2127,0.046738012094932495,-0.0005698651649929257,2152.9207003555725
46,211.2113097,1066,20875,0.8557212941711507,4.319861144788484e-05,1075.832861446445,21540.83489999732,2151,0.04687049342095505,-0.0529945179634086,2186.0601146118406
47,211.751905925,1069,21096,0.8575135521308375,4.281787347734745e-05,1075.6926544202381,22040.010170105357,2157,0.046585846343354026,-0.10639639058316301,2216.84978142196
48,212.29239679999998,1083,21441,0.8580327959771828,4.2147204832359903e-05,1075.6104328523656,22480.998708917097,2187,0.04653051413492534,-0.005186877755289895,2244.9253210717825
49,212.83278232499998,1087,21930,0.8587529108532552,4.120102244654105e-05,1075.2765861061198,22869.028086705945,2208,0.04618634616257252,0.004705920987379179,2270.372783075451
50,213.37306249999997,1085,22406,0.8598387128136875,4.0328254435236976e-05,1075.0036693922648,23205.45713379647,2240,0.04657913387269871,0.014630484349990152,2293.5304310402967
51,213.91323732499998,1083,22915,0.8611437003932625,3.9444105001523566e-05,1074.782010917554,23481.418695779746,2289,0.04756959063183742,0.048286243957122506,2313.8094634079603
52,214.45330679999998,1101,23540,0.8624756676121401,3.843645740060342e-05,1074.8285351876395,23728.410903983782,2338,0.047545897804546426,0.04790876719166067,2332.6164805544413
53,214.993270925,1102,24102,0.8630074298534857,3.752206216754285e-05,1073.6228680151098,24049.48947880993,2381,0.04799071751228731,0.04808893937783658,2354.1038528618546
54,215.5331297,1081,24632,0.8629495266956824,3.6641736091702366e-05,1071.4943033817096,24478.20362862079,2400,0.04833044990495542,0.048266536550560915,2380.0796394028853
55,216.07288312499998,1073,25183,0.8648478670709356,3.587091941397493e-05,1070.6988833268952,24945.577657477606,2420,0.048318128450624234,0.04842232153887413,2409.022605268476
56,216.61253119999998,1075,25605,0.8650803831098881,3.526622026538476e-05,1071.1589390472964,25419.99349928602,2451,0.048526319085169425,0.04857510102871698,2439.3063716051993
57,217.152073925,1085,25901,0.8652291434094919,3.486577786143987e-05,1072.1199121157692,25902.257808783394,2480,0.04863776011670862,0.04872818891082713,2470.8320913270495
58,217.69151129999997,1077,26219,0.8680312398394996,3.452514675998328e-05,1073.3608009241225,26396.983827492753,2502,0.049198334132976175,0.048871879944720545,2503.1327776393096
59,218.230843325,1065,26679,0.868212549145114,3.389601581733091e-05,1074.281478629167,26904.665247230456,2524,0.0494542870774858,0.04902763141989812,2536.2019298284868
60,218.77006999999998,1067,27239,0.868144571802742,3.317073864445751e-05,1074.9344266008081,27420.316587011635,2549,0.04915903467108603,0.049183131729851705,2569.8833495661925
61,219.30919132499997,1059,27818,0.8681762475955156,3.2444270996506434e-05,1075.5434777684452,27937.25962082893,2592,0.04973706743764436,0.049337464443427,2603.708509818972
62,219.84820729999998,1063,28278,0.868951283960652,3.192913040458027e-05,1076.096876486423,28459.008086252827,2624,0.049841372561549795,0.049486680518430394,2637.7694398513613
63,220.38711792499998,1078,28720,0.8691522224557424,3.144317424411195e-05,1076.9575754830028,28991.45403066832,2654,0.04955444260872043,0.049610333020166895,2672.055901605874
64,220.9259232,1076,29375,0.8692686507714266,3.0717292157723826e-05,1077.9376429817003,29540.501393009472,2704,0.05000775163277439,0.04970747493491814,2706.837006500661
65,221.464623125,1073,30007,0.8701622824311823,3.00740403135129e-05,1078.5030465015986,30100.907110013246,2747,0.050343943484820596,0.04980282525903293,2742.0690615868466
66,222.0032177,1082,30446,0.86932404321908,2.9605096145589156e-05,1078.0024689120726,30663.5030691516,2763,0.04976616662073537,0.04992042807974922,2777.1408185915343
67,222.54170692499997,1096,30849,0.8705973257298546,2.9260824983358135e-05,1077.0311898344034,31223.3123060539,2784,0.04939227257190853,0.050038480246176915,2811.587261319568
68,223.0800908,1083,31298,0.8704844215444587,2.8809678025631596e-05,1076.5882805952365,31783.06244761995,2819,0.05001360105249645,0.05013094249252808,2846.137738114059
69,223.61836932499997,1057,31685,0.8703398065724872,2.84164753353953e-05,1076.4897279666377,32344.107273097296,2848,0.05089390732569298,0.05018852829165377,2880.1800720287565
70,224.1565425,1060,32379,0.8697053263836744,2.7769255927190344e-05,1076.2848988651856,32901.16111350137,2878,0.05048450727563204,0.05022895973060848,2913.227185213652
71,224.69461032499999,1058,33083,0.8700422735223692,2.7167596362915508e-05,1076.0438968039841,33457.184760696095,2915,0.050450226445934096,0.050287410701760384,2946.616118145315
72,225.23257279999999,1043,33798,0.8700397124616915,2.6562042816720852e-05,1075.8188860449636,34010.15719495279,2956,0.05081318790838699,0.05033115177627012,2979.3057147386685
73,225.77042992499997,1053,34720,0.8700678242154535,2.584334286439105e-05,1075.733991709871,34552.162925546916,3004,0.050420361928426936,0.05033809743523153,3010.2999614939736
74,226.30818169999998,1061,35342,0.8699872642519537,2.5378118031911373e-05,1075.5358445264692,35084.45031597477,3042,0.05027405182121643,0.050336563899499205,3040.689777797853
75,226.84582812499997,1064,35787,0.8700242014773532,2.5056135745107082e-05,1075.1202971754533,35613.62225644907,3070,0.050262608304684805,0.050311775327469145,3070.2413871208273
76,227.3833692,1097,36397,0.8696880407569096,2.463705497894928e-05,1074.6015538290583,36133.14845183287,3120,0.049840762222414396,0.05028734256116479,3099.2532786698994
77,227.92080492499997,1096,36800,0.87010037851645,2.436982910924406e-05,1074.152800742918,36638.12568801035,3145,0.04993377984484108,0.050276399343390836,3127.8016036602726
78,228.45813529999998,1107,37014,0.8693067287349536,2.4209951506250972e-05,1074.4276427551947,37133.64490701869,3182,0.050235649375470766,0.05025415631721644,3156.1679539739825
79,228.99536032499998,1134,37332,0.8691277262341458,2.401037975120575e-05,1074.9949036218054,37611.57781603134,3223,0.05015768330026881,0.05023277868769538,3183.8013318534354
80,229.53248,1108,37871,0.86926662631248,2.3645149370630253e-05,1075.078597476706,38063.76538539871,3237,0.05034052301007181,0.050205743800992915,3209.284355251473
81,230.069494325,1079,38605,0.8686441253792921,2.314779420613154e-05,1074.9706448616978,38499.41529819401,3259,0.050462191369366756,0.05016661345708687,3233.280164896085
82,230.60640329999998,1068,39188,0.868302707705708,2.277814028608888e-05,1075.1259145167296,38908.64538268063,3268,0.05011190862939553,0.050118821834443245,3255.628711862041
83,231.143206925,1064,39670,0.8687016218294412,2.2501725685889273e-05,1075.6346236607644,39274.842623841236,3302,0.05035886208502019,0.05007443611363187,3276.0503069151555
84,231.67990519999998,1067,39973,0.8683284847277679,2.231862655445864e-05,1075.636050646653,39599.95965933468,3323,0.05035082150685869,0.05003640884341461,3293.7073546399056
85,232.216498125,1073,40240,0.8683608504247778,2.217072664295907e-05,1074.791524156812,39895.5813268696,3327,0.049972817853229747,0.05000108349602181,3308.9022174907063
86,232.75298569999998,1076,40635,0.868249886800152,2.1948226365685484e-05,1074.1350426963031,40165.24725361766,3345,0.04980052562374036,0.04994992589147265,3322.3315137375066
87,233.289367925,1068,41013,0.867778574191436,2.1724335315845186e-05,1073.2445582006183,40402.740900132856,3355,0.04968355486733794,0.04991611561133514,3334.357493940908
88,233.8256448,1062,41266,0.8676471171202086,2.158111424535391e-05,1072.5291399578493,40598.505923123186,3375,0.04991711724950359,0.04989718580242409,3344.759700106394
89,234.36181632499998,1062,41322,0.8677489292852631,2.1553624671765105e-05,1072.4727400393915,40745.03440621453,3385,0.05006907011251034,0.0498676725562104,3352.57910711448
90,234.89788249999998,1059,41255,0.8672589311593729,2.157575209372507e-05,1072.3191465265147,40861.91866180356,3367,0.04979683583231746,0.04984148471981673,3358.656073750191
91,235.433843325,1073,41277,0.8668004592010585,2.156005519851404e-05,1071.9707807651157,40958.051235587795,3367,0.04945876662539121,0.049819429072810874,3363.3915377471094
92,235.9696988,1077,41473,0.8665578153052318,2.1451574792188132e-05,1071.756302520988,41019.51242383668,3379,0.04938152517161708,0.04977915301135013,3365.6845228656853
93,236.505448925,1073,41609,0.8666098942893835,2.1378771814914732e-05,1071.5666946023487,41041.00727083208,3371,0.049128417630674055,0.04973776157972783,3365.6931527327265
94,237.04109369999998,1074,41705,0.8664654382940954,2.132523044705017e-05,1070.7587940836506,41028.72733244162,3383,0.049239957102238836,0.049719367637190606,3364.0774875987486
95,237.576633125,1066,41783,0.8658853313998153,2.1265941287418406e-05,1069.2892477745609,40977.98688531939,3396,0.049549643199684884,0.049723199669411154,3360.387936306534
96,238.11206719999998,1060,41739,0.8659634438688039,2.128772693204857e-05,1068.3408457722508,40892.665677591,3384,0.04947267739008088,0.04970952158869144,3354.5209857527275
97,238.64739592499998,1055,41635,0.8653764850454776,2.1325196772929463e-05,1067.2002536863597,40784.12079548722,3383,0.04964505808737979,0.049712466881349185,3347.8043896803365
98,239.1826193,1047,41480,0.865240351462597,2.1399360706912598e-05,1065.4482547735872,40667.27740152587,3392,0.05018150085771004,0.049736355074036995,3340.981132075408
99,239.71773732499997,1061,41270,0.8654717432609225,2.1524328962692992e-05,1064.0845319259574,40560.18100070139,3382,0.04995796752241043,0.04974353737455213,3334.47129040289
100,240.25275,1073,40848,0.8654328986505,2.1758212411074797e-05,1062.924550952436,40451.7676731062,3364,0.04984806463377236,0.049743467377319724,3327.690140206962
101,240.787657325,1077,40509,0.8649750843904328,2.1935866412822904e-05,1061.8393168587988,40337.39973725261,3339,0.04961892982580541,0.049743759590880704,3320.589503725955
102,241.3224593,1075,40270,0.8650023747478218,2.206920206015619e-05,1061.6467190649641,40234.81967881416,3324,0.049633635433291266,0.049734116992122004,3314.5882805951937
103,241.85715592499997,1072,39892,0.864426750181391,2.226756182847478e-05,1061.6776370925527,40137.374119458334,3297,0.049545325068356384,0.04972230200575453,3308.9026252009603
104,242.3917472,1068,39657,0.8640504083213235,2.239110648944838e-05,1062.0325715191534,40035.07069242715,3280,0.04952912755465982,0.04973310717793394,3304.396905932121
105,242.92623312499998,1066,39628,0.8638615542876957,2.2401886683462884e-05,1063.309610636687,39939.77788851313,3285,0.04970978655060414,0.04974163833640904,3301.1093116491243
106,243.46061369999998,1064,39260,0.8647030136247108,2.2638575076571127e-05,1064.5590840109423,39869.21085415221,3264,0.04980486516845648,0.04974989945917238,3299.0768533827995
107,243.994888925,1055,39026,0.863747888775786,2.2747567585151456e-05,1065.1161747717751,39822.947088268505,3255,0.0500446486873332,0.04976417447573608,3298.046773426289
108,244.52905879999997,1051,39189,0.8628771528607923,2.262512855579192e-05,1065.1014292509253,39795.55666039924,3252,0.04979790795129802,0.049765719712478174,3297.0144284128114
109,245.063123325,1059,39292,0.8633129275796555,2.258030830904338e-05,1065.1607963940091,39791.25185168331,3271,0.049947641979603954,0.049776093743311184,3297.707875603008
110,245.59708249999997,1075,39113,0.8623491049005171,2.2670726770611416e-05,1065.249405422526,39816.85437948689,3281,0.050011623255968786,0.049796745484121316,3300.690004303545
111,246.130936325,1070,38878,0.862505803534046,2.2812785747303375e-05,1065.3328727717296,39885.725044734114,3269,0.05016531585832012,0.04981532209540602,3306.152121225786
112,246.66468479999997,1068,38871,0.8631762817630669,2.2833539183743802e-05,1065.6600602504948,40004.38904618374,3262,0.0500967849691339,0.049834724446103616,3314.792701986392
113,247.19832792499997,1063,39108,0.8629529675416884,2.2682427849696106e-05,1065.7203787175042,40171.87306620684,3252,0.049651834562984776,0.04985488927970306,3326.1293347527053
114,247.7318657,1053,39664,0.8621360146885437,2.232876679414011e-05,1065.4995583138711,40382.8089650947,3275,0.04961451981657932,0.04987473927213125,3339.582731205626
115,248.265298125,1052,39867,0.8624878814902607,2.222047871931626e-05,1065.26655190376,40633.218306189636,3297,0.04988497472486501,0.04989045660372719,3354.980543160596
116,248.79862519999998,1053,39805,0.862427427307537,2.2255043025070627e-05,1065.4680740220413,40913.860857549786,3306,0.05014061193548412,0.04989540627098155,3371.979297379264
117,249.33184692499998,1056,40071,0.8621956715984717,2.209908167623918e-05,1066.2703118983236,41214.46664703539,3330,0.0502533117317679,0.04989175014683531,3390.383904505133
118,249.8649633,1072,40563,0.8614594306460737,2.1814069804412997e-05,1067.1516455638653,41553.76160275351,3358,0.04986696357288811,0.04988773243616521,3411.115835013185
119,250.397974325,1086,40990,0.861591555373828,2.1591608745334503e-05,1067.9696029354934,41938.03728283687,3384,0.049617516896778686,0.04987605069358617,3433.987406283202
