,x_(nm),baseline_dark,baseline_light,baseline_mirror,baseline_calibration,baseline_dark_smoothed,baseline_light_smoothed,raw_signal,calibrated_signal,calibrated_signal_smoothed,raw_signal_smoothed
0,186.23,1287,1314,0.3621226043733797,0.013411948310125174,1279.3853553032225,4198.504431606545,1274,-0.17435532803162726,,1414.3376432011291
1,186.775442325,1280,1301,1.18800459154587,0.05657164721647,1283.5257292467043,3205.86842223424,1271,-0.50914482494823,,1368.9931067411653
2,187.3207793,1292,1302,1.908567993433533,0.19085679934335328,1287.449719510444,2337.2499989190965,1283,-1.7177111940901795,,1329.7300196001647
3,187.86601092499998,1300,1307,1.7279185264672412,0.24684550378103445,1291.16215426664,1588.4149117863535,1294,-1.4810730226862068,,1296.338201234373
4,188.41113719999998,1292,1304,1.043047789334166,0.08692064911118051,1294.6678616874894,955.1289109612517,1296,0.34768259644472205,,1268.6074711000358
5,188.956158125,1294,1296,0.840365554154959,0.4201827770774795,1297.9716699451903,433.15774656902977,1282,-5.0421933249297535,,1246.3276486533987
6,189.50107369999998,1296,1292,0.8202728553565946,-0.20506821383914864,1301.0784072119404,18.26716873492751,1278,3.6912278491046755,,1229.2885533507074
7,190.045883925,1301,1311,0.837733819880384,0.0837733819880384,1303.9929016599374,-293.7770724158154,1291,-0.837733819880384,,1217.2800046482075
8,190.59058879999998,1304,1318,0.8116271105193998,0.05797336503709999,1306.7199814613791,-507.2092267579592,1295,-0.5217602853338998,,1210.0918220021447
9,191.135188325,1308,1316,0.8262856362484797,0.10328570453105997,1309.2644747884633,-626.2635441662642,1312,0.41314281812423986,,1207.5138248687645
10,191.67968249999998,1315,1325,0.8012221689422371,0.0801222168942237,1311.6312098133876,-655.1742745154934,1321,0.4807333013653422,,1209.335832704313
11,192.22407132499998,1318,1329,0.7775424502505143,0.07068567729550129,1313.8250147083502,-598.1756676804025,1308,-0.7068567729550129,,1215.3476649650352
12,192.7683548,1307,1323,0.7753865851703869,0.048461661573149184,1315.8507176455482,-459.5019735357564,1304,-0.14538498471944755,,1225.3391411071773
13,193.312532925,1300,1309,0.7956261498651602,0.08840290554057335,1317.71314679718,-243.3874419563126,1302,0.1768058110811467,,1239.1000805869846
14,193.8566057,1311,1306,0.7908861747409445,-0.1581772349481889,1319.4171303354428,45.933677183165855,1306,0.7908861747409445,,1256.420302860703
15,194.400573125,1316,1316,0.7942231778648126,inf,1320.9674964325347,404.22713400792327,1319,inf,,1277.089627384578
16,194.9444352,1317,1325,0.7947581770897779,0.09934477213622224,1322.3690732606535,827.2586786431948,1322,0.4967238606811112,,1300.8978736148554
17,195.488191925,1326,1335,0.7914877943554887,0.08794308826172097,1323.6266889919968,1310.7940612142202,1333,0.6156016178320468,,1327.6348610077807
18,196.0318433,1340,1352,0.7911116722494277,0.0659259726874523,1324.7451717987626,1850.5990318462414,1344,0.2637038907498092,,1357.0904090195995
19,196.575389325,1338,1347,0.7900325230816138,0.08778139145351264,1325.7293498531483,2442.4393406644976,1343,0.43890695726756324,,1389.0543371065576
20,197.11883,1327,1331,0.798472358442206,0.1996180896105515,1326.584051327352,3082.0807377942238,1348,4.191979881821581,,1423.3164647249005
21,197.662165325,1320,1339,0.7981102791346143,0.0420058041649797,1327.3141043935711,3765.288973360669,1349,1.2181683207844112,,1459.6666113308738
22,198.2053953,1328,1349,0.8040599544843242,0.0382885692611583,1327.9243372240037,4487.829797489063,1341,0.4977514003950579,,1497.8945963807237
23,198.74851992499998,1331,1344,0.8074165803696804,0.06210896772074465,1328.4195779908473,5245.468960304652,1327,-0.2484358708829786,,1537.7902393306952
24,199.2915392,1341,1341,0.8060625325032217,inf,1328.8046548662999,6033.972211932667,1331,-inf,,1579.143359637034
25,199.83445312499998,1363,1367,0.8122546130835153,0.20306365327087883,1329.0843960225345,6849.1053024982275,1351,-2.436763839250546,,1621.7437767559543
26,200.3772617,1356,2379,0.8144257223941842,0.000796115075654139,1329.675643842417,7574.871911028417,1407,0.04060186885836109,,1658.9840539989261
27,200.919964925,1325,6528,0.8150182986479615,0.0001566439167111208,1329.5886203537766,8316.15006002385,1618,0.04589666759635839,,1696.656753267312
28,201.4625628,1308,11374,0.8232603193402961,8.178624273199842e-05,1329.3033817300252,9075.17850913933,1849,0.044246357318011145,,1735.0369430790852
29,202.005055325,1311,13436,0.8194894939197722,6.758676238513586e-05,1329.2522593942986,9852.939069967422,1957,0.043661048500797765,,1774.872341389352
30,202.5474425,1309,14344,0.8269202298982968,6.343845261973891e-05,1329.1258692155852,10645.37618066074,2009,0.04440691683381724,,1815.5541688373114
31,203.089724325,1316,15017,0.8298864771900701,6.057123401139115e-05,1328.659244829982,11450.810686538545,2036,0.04361128848820163,,1856.1274094543123
32,203.63190079999998,1327,15704,0.8293789756785952,5.768790259988838e-05,1327.8498493736863,12270.90593218396,2083,0.043612054365515615,,1897.1358807673648
33,204.173971925,1335,16255,0.8303112569560028,5.5650888535925125e-05,1327.3082289519327,13102.187478764841,2115,0.0434076930580216,,1939.3991709891131
34,204.71593769999998,1341,16639,0.832804584655424,5.443878838118865e-05,1326.8453419103234,13935.05581100338,2133,0.04311552039790141,,1982.2013409136862
35,205.257798125,1331,16954,0.8371769300637781,5.35861825554489e-05,1326.5154816643383,14764.688599968007,2143,0.043511980235024506,-inf,2025.3487734716139
36,205.7995532,1332,17387,0.8381556767340916,5.220527416593532e-05,1326.30639425579,15587.72221341337,2165,0.043486993380224125,-inf,2068.555890280601
37,206.34120292499998,1335,18019,0.840625124319978,5.038510694797279e-05,1325.9676776370675,16405.925796733478,2197,0.043431962189152545,-inf,2111.056966182659
38,206.88274729999998,1321,18686,0.8415937915656597,4.8464946246222845e-05,1325.015583591902,17214.141815216324,2226,0.04386077635283168,-inf,2152.786858139441
39,207.424186325,1319,19045,0.8431564976534377,4.756608922788208e-05,1323.774740084688,18001.053296790073,2256,0.044569425606525506,-inf,2193.257378423026
40,207.96552,1323,19353,0.844165982526256,4.682007667921553e-05,1323.105189245484,18767.449206097175,2265,0.04410451223182103,-inf,2233.073614351358
41,208.506748325,1319,19697,0.8476484869242688,4.6122999614989047e-05,1322.356225509046,19515.24614374014,2271,0.04390909563346957,-inf,2272.7538789100113
42,209.0478713,1326,20144,0.8491768105118729,4.512577375448363e-05,1321.3249224217734,20240.963872341003,2306,0.044223258279393954,-inf,2311.636073297199
43,209.588888925,1324,20766,0.8502736512177026,4.373385717609827e-05,1320.7069242791201,20939.517248408396,2337,0.04430239731938755,-inf,2349.5585856983853
44,210.12980119999997,1313,21227,0.8513731200582484,4.27524917172968e-05,1320.8822396883027,21606.704523318353,2357,0.044633601352857856,inf,2386.825635914698
45,210.670608125,1305,21702,0.8534308197221572,4.184099719184964e-05,1321.4375410541322,22229.17563251673,2367,0.04443513901774432,inf,2422.298194749552
46,211.2113097,1312,22131,0.8557212941711507,4.1102900916045474e-05,1321.9725928106839,22806.002423610516,2385,0.044103412682916794,inf,2455.5365919952415
47,211.751905925,1315,22358,0.8575135521308375,4.075053709693663e-05,1322.0097170943595,23332.69161249361,2411,0.04466258865824255,inf,2486.6963011619264
48,212.29239679999998,1324,22706,0.8580327959771828,4.0128743615058594e-05,1321.818274479578,23797.506217580918,2441,0.04482380661802045,inf,2515.3955242473867
49,212.83278232499998,1329,23164,0.8587529108532552,3.932919216181613e-05,1321.7901424720578,24206.638859316845,2468,0.044795949872308574,inf,2541.588031438942
50,213.37306249999997,1320,23626,0.8598387128136875,3.8547418309588786e-05,1322.1864368388615,24560.943803936196,2512,0.04594852262502983,0.111999752499978,2565.66114747781
51,213.91323732499998,1309,24204,0.8611437003932625,3.761274079027135e-05,1322.8286484404828,24851.778115019115,2548,0.0466021858391462,0.04617812593435054,2586.8245713379197
52,214.45330679999998,1317,24922,0.8624756676121401,3.6537838068720195e-05,1323.2376950780058,25112.119980067022,2594,0.04665881921375569,0.04634143529454427,2607.151192552443
53,214.993270925,1330,25525,0.8630074298534857,3.566883363725917e-05,1322.718725225914,25447.672359509354,2646,0.04694018506663307,0.046661286207014215,2631.5716324265054
54,215.5331297,1327,26021,0.8629495266956824,3.494571663949471e-05,1321.649120025343,25897.442025866454,2671,0.04696704316348089,0.04691921676351264,2660.662506511988
55,216.07288312499998,1317,26558,0.8648478670709356,3.426361344918726e-05,1321.06394255813,26389.394459670155,2704,0.04752363185402273,0.047153937949177244,2692.30933882982
56,216.61253119999998,1325,27053,0.8650803831098881,3.3624082054955226e-05,1320.8616956216194,26886.919816982878,2749,0.04788069284625624,0.04743075847268814,2725.8317742190693
57,217.152073925,1335,27377,0.8652291434094919,3.32243738349394e-05,1321.3185349611292,27391.919092164644,2780,0.048009220191487435,0.047702670684132496,2761.019298285299
58,217.69151129999997,1328,27707,0.8680312398394996,3.290614654988815e-05,1322.0823121701255,27910.840539989047,2794,0.04824041084213603,0.04797162532290521,2797.5551881129277
59,218.230843325,1325,28234,0.868212549145114,3.226476454513783e-05,1322.9317311830137,28444.639153774173,2817,0.04813902870134565,0.04822914220032795,2835.0422886135043
60,218.77006999999998,1321,28818,0.868144571802742,3.157233777512972e-05,1323.8876984755914,28985.710752224863,2856,0.04846353848482412,0.048471153641268014,2873.0245758680276
61,219.30919132499997,1321,29434,0.8681762475955156,3.0881664980454434e-05,1324.6387460644382,29524.99768964133,2895,0.048607740679235276,0.0487086613319012,2910.5660377357935
62,219.84820729999998,1327,29874,0.868951283960652,3.0439320557699655e-05,1325.7577295068718,30064.914403496674,2933,0.04888554881566565,0.04893557525368182,2948.457835964518
63,220.38711792499998,1336,30349,0.8691522224557424,2.99573371404454e-05,1327.453690910301,30616.515504314346,2976,0.04913003291033046,0.04915243394224681,2987.5820743391123
64,220.9259232,1337,31094,0.8692686507714266,2.9212240843210895e-05,1328.788919341296,31188.590681555048,3034,0.04957317271092889,0.0493681737134373,3027.658587963429
65,221.464623125,1326,31728,0.8701622824311823,2.862187627232361e-05,1330.0006795170643,31770.26084395962,3074,0.05003103972402167,0.04960002199860347,3068.8233029060093
66,222.0032177,1332,32184,0.86932404321908,2.8177234643429274e-05,1330.9726607623927,32353.37214885893,3100,0.049817350849582956,0.04981468743542227,3109.8685360936233
67,222.54170692499997,1343,32608,0.8705973257298546,2.7845748464092582e-05,1331.6311581236012,32932.11961765775,3132,0.04981604400226163,0.050013448727327825,3150.2246030487063
68,223.0800908,1340,33052,0.8704844215444587,2.7449685341336363e-05,1332.6065596049486,33508.25688010989,3172,0.050287823545328215,0.05020430531031641,3190.6517927925274
69,223.61836932499997,1330,33491,0.8703398065724872,2.706196345177349e-05,1333.3565199664515,34087.269473826615,3196,0.050497623801009334,0.05038083734563175,3230.788149221891
70,224.1565425,1317,34230,0.8697053263836744,2.642437111122275e-05,1333.8221250764202,34665.64103377133,3240,0.050814065646881346,0.05055435989292956,3270.7245690728496
71,224.69461032499999,1305,34870,0.8700422735223692,2.592111644636881e-05,1333.9934539853423,35243.17325420667,3301,0.05173854842695215,0.05070149792678911,3309.722598473288
72,225.23257279999999,1311,35558,0.8700397124616915,2.5404844583808553e-05,1333.9780515979721,35816.17835058483,3349,0.05177507326180183,0.050811246201820884,3347.210559695512
73,225.77042992499997,1325,36549,0.8700678242154535,2.4700994328169813e-05,1334.4348682869118,36376.28397019115,3394,0.051106357264983346,0.05090680147433906,3383.9058642324208
74,226.30818169999998,1323,37207,0.8699872642519537,2.4244433849402344e-05,1335.2721239438915,36923.720129560556,3424,0.050937555517594324,0.05099263578138852,3420.2770844186075
75,226.84582812499997,1320,37672,0.8700242014773532,2.393332420437261e-05,1336.1850325035418,37466.799542457775,3447,0.05090618058270054,0.05105599067888182,3456.0139527508454
76,227.3833692,1340,38288,0.8696880407569096,2.353816284391333e-05,1336.5631384629069,38001.988267004184,3507,0.05100719888276018,0.051132279284882474,3491.1518267683764
77,227.92080492499997,1352,38691,0.87010037851645,2.3302723118360158e-05,1336.2740718928826,38523.91068880309,3532,0.050799936398025144,0.051227003868103006,3525.752451924098
78,228.45813529999998,1362,38941,0.8693067287349536,2.313277971034231e-05,1336.420983487709,39037.47142630562,3560,0.0508458498033324,0.05132066901607472,3560.477541960112
79,228.99536032499998,1370,39253,0.8691277262341458,2.2942420775391226e-05,1337.177852272959,39534.36913633301,3626,0.051758101269282604,0.05141465775945413,3594.9717773901325
80,229.53248,1361,39763,0.86926662631248,2.2635972769972395e-05,1337.6936057441587,40005.64848580865,3671,0.05228909709863623,0.051504692770639494,3627.882081134271
81,230.069494325,1348,40577,0.8686441253792921,2.2142907680014584e-05,1337.630161498536,40462.44343020149,3692,0.051902975601954185,0.05160579467149657,3659.9652540260686
82,230.60640329999998,1332,41184,0.868302707705708,2.1788183973344075e-05,1337.545357765722,40895.024258759324,3692,0.05142011417709202,0.051711479279197906,3690.8298036194906
83,231.143206925,1332,41621,0.8687016218294412,2.1561756852476886e-05,1337.875852227658,41284.98643230798,3720,0.0514894753637148,0.05180474246419182,3719.0969217875117
84,231.67990519999998,1339,41880,0.8683284847277679,2.1418526546650747e-05,1337.9676776370668,41632.396384968284,3747,0.051575811924335,0.05189254165140683,3744.3918775056472
85,232.216498125,1346,42179,0.8683608504247778,2.1266153611656695e-05,1337.6967315227723,41952.055992207395,3773,0.0516129548154908,0.051970364736155,3767.4371333438307
86,232.75298569999998,1348,42665,0.868249886800152,2.1014349705935863e-05,1337.1100364673914,42249.499286506245,3820,0.05194747247307345,0.05206198690969829,3789.644884368769
87,233.289367925,1340,43159,0.867778574191436,2.075082077982343e-05,1336.4769983464828,42516.81825182822,3850,0.05208456015735681,0.05216052879335289,3810.5293438129233
88,233.8256448,1325,43462,0.8676471171202086,2.0591098491117273e-05,1336.4987655439277,42742.331808194154,3856,0.05211607028101782,0.0522439055187499,3828.8012412511434
89,234.36181632499998,1322,43464,0.8677489292852631,2.0591071360762734e-05,1336.910484948671,42922.15334435579,3863,0.05232191232769811,0.05231691398057491,3844.148700989756
90,234.89788249999998,1321,43434,0.8672589311593729,2.0593615538179967e-05,1337.0154250379142,43077.41230831873,3860,0.05228718985143894,0.05240267121107538,3858.32057351235
91,235.433843325,1331,43512,0.8668004592010585,2.0549547407625674e-05,1336.5698883326659,43214.02930983631,3869,0.05215475132055396,0.052504922015023416,3871.543115359277
92,235.9696988,1337,43730,0.8665578153052318,2.0441059026377745e-05,1336.046252463224,43317.09893768746,3886,0.05210425945823687,0.05260387162069408,3882.725633649612
93,236.505448925,1333,43925,0.8666098942893835,2.0346776255855173e-05,1335.82346146003,43381.036852476005,3901,0.052250521425036084,0.052699398380074695,3891.6177716368816
94,237.04109369999998,1339,44064,0.8664654382940954,2.0280057069493163e-05,1335.746109764635,43412.531382363435,3922,0.05238338741050084,0.05279620443691493,3898.682688169532
95,237.576633125,1337,44106,0.8658853313998153,2.02456295774934e-05,1335.3592833359503,43408.24809168867,3924,0.052375443716975424,0.05290778630709987,3904.051394142488
96,238.11206719999998,1336,44087,0.8659634438688039,2.0255981003223406e-05,1334.5212349090323,43371.76574780774,3933,0.052604782665371184,0.05303216334201578,3907.6171827220705
97,238.64739592499998,1347,44059,0.8653764850454776,2.0260734338019235e-05,1333.3587397222784,43311.85440213738,3964,0.05302234176259634,0.053180152811215686,3910.1605245871183
98,239.1826193,1332,44000,0.865240351462597,2.0278437036247237e-05,1332.3322159052045,43242.99938843379,3975,0.053595909086801445,0.053331290427146225,3912.522231534048
99,239.71773732499997,1325,43932,0.8654717432609225,2.031290030419702e-05,1331.5563206414386,43184.65566603917,3968,0.053686995503992724,0.0534640702446455,3915.2020883824484
100,240.25275,1325,43566,0.8654328986505,2.0487983207085533e-05,1330.9836689392484,43126.96165258474,3961,0.05400632373387747,0.05358202780297015,3917.3720129560506
101,240.787657325,1332,43184,0.8649750843904328,2.066747310499935e-05,1330.6418718430514,43063.72060522239,3965,0.054417456685463286,0.0536932547749738,3919.070533873852
102,241.3224593,1341,42996,0.8650023747478218,2.076587143795035e-05,1330.5586763006834,43010.45498199197,3955,0.05428198793880221,0.05381224663134499,3922.048155111026
103,241.85715592499997,1331,42719,0.864426750181391,2.088592708469583e-05,1330.4249926385396,42961.234977008855,3926,0.05419898078478568,0.05393032810032914,3925.319486285005
104,242.3917472,1320,42558,0.8640504083213235,2.0952771917195876e-05,1330.4449477904116,42906.96799474424,3910,0.05426767926553732,0.05404926513096924,3928.659222179362
105,242.92623312499998,1322,42554,0.8638615542876957,2.095124064531664e-05,1331.0539310063396,42855.52950236616,3909,0.05420085954943415,0.054182233340265507,3933.34458311619
106,243.46061369999998,1328,42148,0.8647030136247108,2.1183317335245243e-05,1331.9245283018615,42822.87422138585,3884,0.05414455910888684,0.05432678362598422,3939.926295046245
107,243.994888925,1334,41952,0.863747888775786,2.126515064197612e-05,1332.3461460055464,42812.134770888675,3880,0.0541410735344712,0.05446494632798427,3947.265306122373
108,244.52905879999997,1329,42177,0.8628771528607923,2.1124097945084026e-05,1332.462320777342,42815.58637794658,3910,0.05452129679626187,0.054574967309189766,3953.888876305163
109,245.063123325,1329,42400,0.8633129275796555,2.1020012358590136e-05,1333.2203220910753,42837.93157262823,3937,0.054820192231203074,0.0546660982402455,3961.1979433281995
110,245.59708249999997,1337,42302,0.8623491049005171,2.1050875256939266e-05,1334.3516953951137,42886.54855149525,3947,0.054942784420611485,0.05475074048396991,3970.192824299456
111,246.130936325,1343,42039,0.862505803534046,2.1193871720415916e-05,1335.405649052048,42972.67002650034,3921,0.05463780129523223,0.054841486266152,3981.9673831796104
112,246.66468479999997,1344,42069,0.8631762817630669,2.1195243259989364e-05,1336.5594011189123,43103.260119141174,3907,0.05432340847535274,0.05493879464183927,3996.9878366440153
113,247.19832792499997,1326,42356,0.8629529675416884,2.103224390791344e-05,1337.7208317288919,43280.827357357215,3937,0.05491518884356199,0.05503211509285388,4014.826926997137
114,247.7318657,1319,42883,0.8621360146885437,2.0742373560979302e-05,1338.1782146820733,43499.17001517505,3991,0.055423622154936694,0.05511454983888587,4034.0002038550497
115,248.265298125,1329,43056,0.8624878814902607,2.0669779315317677e-05,1338.3827719766894,43748.26618949382,4010,0.05541567834436669,0.055180594891902315,4053.93386033651
116,248.79862519999998,1336,42969,0.862427427307537,2.0714995972126365e-05,1338.8791365602588,44020.41867312879,4007,0.05532975424154952,0.0552268476826791,4074.527735622473
117,249.33184692499998,1345,43248,0.8621956715984717,2.0575989108141937e-05,1339.7748986386753,44307.289134520885,4028,0.05520537877714482,0.05525206595272441,4095.3801445105564
118,249.8649633,1349,43763,0.8614594306460737,2.031073302791705e-05,1340.9002695417532,44627.84418673044,4068,0.05522488310290646,0.05526404688006221,4117.902489297526
119,250.397974325,1345,44160,0.861591555373828,2.01235911566934e-05,1341.6690525266454,44989.60424924601,4108,0.055601482365943866,0.05527347070118219,4142.5526512491
120,250.93087999999997,1348,44764,0.861950076569216,1.98532816604297e-05,1342.2214093184186,45390.16061518861,4133,0.05529138942429672,0.05527901039795375,4169.250288794683
