,x_(nm),baseline_dark,baseline_light,baseline_mirror,baseline_calibration,baseline_dark_smoothed,baseline_light_smoothed,raw_signal,calibrated_signal,calibrated_signal_smoothed,raw_signal_smoothed
0,186.23,1270,1287,0.3621226043733797,0.021301329669022335,1245.7059835383907,4142.353111926932,1268,-0.04260265933804467,,1513.3070693847608
1,186.775442325,1267,1285,1.18800459154587,0.06600025508588166,1253.1198617553766,3160.730094766509,1276,0.594002295772935,,1430.8718189033393
2,187.3207793,1262,1283,1.908567993433533,0.09088419016350156,1260.069827072902,2301.91499589677,1274,1.0906102819620187,,1359.1864974985315
3,187.86601092499998,1262,1280,1.7279185264672412,0.09599547369262451,1266.5701263346807,1561.707889106301,1271,0.8639592632336206,,1297.8734461499482
4,188.41113719999998,1263,1270,1.043047789334166,0.14900682704773802,1272.6350063844268,935.9088481836893,1285,3.2781501950502365,,1246.5550058372
5,188.956158125,1265,1266,0.840365554154959,0.840365554154959,1278.2787140658547,420.3179469175202,1278,10.924752204014466,,1204.8535175398974
6,189.50107369999998,1273,1265,0.8202728553565946,-0.10253410691957432,1283.5154962226782,10.735259096381014,1265,0.8202728553565946,,1172.3913222376514
7,190.045883925,1279,1279,0.837733819880384,inf,1288.3595996986114,-297.039141491141,1286,inf,,1148.7907609100725
8,190.59058879999998,1288,1294,0.8116271105193998,0.13527118508656663,1292.8252713373686,-507.2051810564608,1301,1.7585254061253661,,1133.6741745367713
9,191.135188325,1299,1306,0.8262856362484797,0.11804080517835425,1296.9267579826637,-623.9627858109907,1295,-0.472163220713417,,1126.6639040973587
10,191.67968249999998,1298,1315,0.8012221689422371,0.04713071582013159,1300.678306478211,-651.5118819661448,1296,-0.09426143164026318,,1127.382290571445
11,192.22407132499998,1296,1313,0.7775424502505143,0.045737791191206724,1304.0941636677244,-594.0523957333371,1293,-0.13721337357362018,,1135.4516749386414
12,192.7683548,1293,1309,0.7753865851703869,0.048461661573149184,1307.1885763949183,-455.7842533239791,1294,0.048461661573149184,,1150.4943981785582
13,193.312532925,1285,1306,0.7956261498651602,0.03788695951738858,1309.9757915035066,-240.90738094948483,1288,0.11366087855216575,,1172.1328012708063
14,193.8566057,1299,1314,0.7908861747409445,0.05272574498272963,1312.4700558372033,46.37829517872888,1291,-0.42180595986183705,,1199.989225194996
15,194.400573125,1319,1322,0.7942231778648126,0.26474105928827085,1314.6856162397225,401.8728488492543,1306,-3.4416337707475213,,1233.6860109307386
16,194.9444352,1324,1323,0.7947581770897779,-0.7947581770897779,1316.6367195547787,821.3763538506737,1320,3.1790327083591117,,1272.8454994576443
17,195.488191925,1329,1332,0.7914877943554887,0.2638292647851629,1318.3376126260855,1300.6888839715757,1324,-1.3191463239258145,,1317.0900317553237
18,196.0318433,1345,1349,0.7911116722494277,0.19777791806235692,1319.8025422973574,1835.6105130005453,1342,-0.5933337541870708,,1366.041948803388
19,196.575389325,1341,1339,0.7900325230816138,-0.3950162615408069,1321.0457554123082,2421.941314726169,1340,0.3950162615408069,,1419.3235915814478
20,197.11883,1329,1317,0.798472358442206,-0.06653936320351717,1322.0814988146522,3055.481362937037,1321,0.5323149056281373,,1476.5573010691128
21,197.662165325,1326,1310,0.7981102791346143,-0.049881892445913394,1322.9240193481035,3732.0307314217316,1327,-0.049881892445913394,,1537.365418245995
22,198.2053953,1327,1321,0.8040599544843242,-0.13400999241405404,1323.587563856376,4447.3894939688425,1333,-0.8040599544843242,,1601.3702840917047
23,198.74851992499998,1321,1316,0.8074165803696804,-0.1614833160739361,1324.086379183184,5197.357724366953,1323,-0.3229666321478722,,1668.1942395858516
24,199.2915392,1320,1308,0.8060625325032217,-0.06717187770860181,1324.4347121722415,5977.73549640465,1318,0.13434375541720361,,1737.459625708048
25,199.83445312499998,1347,1344,0.8122546130835153,-0.2707515376945051,1324.6468096672377,6784.3228838704,1341,1.6245092261670306,inf,1808.7887834378687
26,200.3772617,1351,2353,0.8144257223941842,0.0008128001221498844,1325.4981313279775,7502.688124306182,1437,0.06990081050489005,inf,1870.9366916577594
27,200.919964925,1328,6486,0.8150182986479615,0.00015801052707405225,1325.9733855806219,8237.09388661109,1804,0.07521301088724887,-inf,1934.2830868195965
28,201.4625628,1319,11270,0.8232603193402961,8.273141587180144e-05,1325.9239846881896,8988.879181861252,2199,0.07280364596718526,-inf,1999.2660309406397
29,202.005055325,1312,13289,0.8194894939197722,6.842193319861169e-05,1326.0437155994218,9757.516885999497,2377,0.07286935885652145,-inf,2066.24247434819
30,202.5474425,1314,14209,0.8269202298982968,6.412719890642085e-05,1326.2800516432735,10538.437473102249,2468,0.07400278753800967,-inf,2134.3745951210262
31,203.089724325,1324,14886,0.8298864771900701,6.119204226442044e-05,1326.056445219572,11331.465491856903,2524,0.07343045071730453,-inf,2202.4242678202936
32,203.63190079999998,1325,15548,0.8293789756785952,5.831252026144943e-05,1325.797549208337,12139.472989195445,2577,0.07300727536733469,-inf,2270.9266801059607
33,204.173971925,1322,16081,0.8303112569560028,5.625796171529255e-05,1325.8509819021697,12959.874470542687,2627,0.07341664003845678,0.05358012608274606,2341.393077985866
34,204.71593769999998,1321,16464,0.832804584655424,5.499601034507191e-05,1325.812566536023,13782.834514937787,2650,0.07308969774860057,0.1135419540816022,2412.382590772112
35,205.257798125,1322,16783,0.8371769300637781,5.4147657335474947e-05,1325.8684681419484,14601.233527372933,2669,0.07293689443088475,0.11158648874819845,2482.38129968964
36,205.7995532,1321,17237,0.8381556767340916,5.2661201101664465e-05,1325.4867380914377,15411.37753969483,2713,0.07330439193351694,0.11926656063898423,2551.361503091754
37,206.34120292499998,1320,17816,0.840625124319978,5.095933100872806e-05,1324.8392942082241,16216.155994472952,2776,0.07419678594870806,0.12506674962129785,2619.1010215406413
38,206.88274729999998,1317,18441,0.8415937915656597,4.9147032910865435e-05,1324.2693605743932,17012.591157217277,2824,0.07406457859667422,0.1361050490905228,2685.866678746919
39,207.424186325,1309,18813,0.8431564976534377,4.816936115478963e-05,1323.4792634034493,17789.566717252597,2832,0.0733619370387446,0.14953845780186606,2750.214070533821
40,207.96552,1305,19112,0.844165982526256,4.740641222700376e-05,1322.8959659335183,18544.037531993574,2830,0.07229477864618074,0.1463002805117414,2812.518199732669
41,208.506748325,1313,19514,0.8476484869242688,4.657153381266242e-05,1322.705270787535,19280.461278850795,2867,0.0723721635448774,0.042657067802391535,2873.223108111114
42,209.0478713,1329,19972,0.8491768105118729,4.554936493653773e-05,1322.4150943395973,19996.633377879072,2930,0.0729245332633969,0.1328426216640248,2932.106299123367
43,209.588888925,1326,20506,0.8502736512177026,4.4331264401340075e-05,1322.147794967018,20685.230967858442,2975,0.07310225499780978,0.09541451426213446,2988.5455616208174
44,210.12980119999997,1312,20965,0.8513731200582484,4.3320262558298906e-05,1322.743640852542,21343.049740650567,3004,0.07329788424864175,0.07339910462169726,3043.0577816031487
45,210.670608125,1316,21419,0.8534308197221572,4.2452908507295286e-05,1323.695689596568,21955.64776099077,3034,0.0729340968155333,0.07936120817985036,3094.4864209834286
46,211.2113097,1323,21807,0.8557212941711507,4.177510711634206e-05,1324.4035425490697,22519.784638383222,3060,0.07256336106108616,0.09147908125523947,3141.173322158992
47,211.751905925,1330,22060,0.8575135521308375,4.136582499425169e-05,1324.8222383292687,23032.51774672089,3083,0.07251429121492321,0.08732560152087747,3183.139708713612
48,212.29239679999998,1340,22428,0.8580327959771828,4.068820163017749e-05,1324.900631950868,23485.904890257538,3114,0.07218086969193487,0.05794368279049504,3219.883191012193
49,212.83278232499998,1330,22876,0.8587529108532552,3.985672100869095e-05,1324.8519105755256,23883.922082039906,3140,0.07214066502573062,0.0388010592893574,3251.0115970916045
50,213.37306249999997,1327,23316,0.8598387128136875,3.910312941987755e-05,1324.7036399465192,24228.18829418513,3194,0.07300554262691139,0.031818236722315534,3276.769032141096
51,213.91323732499998,1330,23860,0.8611437003932625,3.822209056339381e-05,1324.9554463294498,24512.41122109174,3260,0.07376863478735005,0.07314023106176161,3297.478900994297
52,214.45330679999998,1335,24540,0.8624756676121401,3.716766505546822e-05,1325.3178554440387,24768.325420733854,3326,0.07400082112543722,0.07303797438244305,3316.0937054066276
53,214.993270925,1343,25119,0.8630074298534857,3.6297418819544314e-05,1324.5795827764816,25099.971573534596,3362,0.07328448859665997,0.07308651309438571,3340.9600670456216
54,215.5331297,1331,25639,0.8629495266956824,3.5500638748382524e-05,1323.1785544406189,25544.389974857382,3373,0.07249230432419712,0.07306905532992714,3374.7346485763474
55,216.07288312499998,1319,26227,0.8648478670709356,3.4721690503891744e-05,1322.3032911277464,26030.247366870775,3420,0.07295027174867655,0.07304728640074358,3412.82416362765
56,216.61253119999998,1327,26742,0.8650803831098881,3.403818151130782e-05,1322.3266891662072,26523.4236109533,3483,0.07338631933837965,0.07305655736845568,3452.6766631180117
57,217.152073925,1328,27047,0.8652291434094919,3.364163238887561e-05,1323.010011551765,27024.938707557976,3512,0.07347332513730434,0.0730442673033567,3493.364810074906
58,217.69151129999997,1315,27314,0.8680312398394996,3.338710103617445e-05,1323.6371831751314,27539.76259937885,3510,0.07328468677440292,0.07300602343517197,3534.5953475729234
59,218.230843325,1319,27791,0.868212549145114,3.279739155126602e-05,1323.715712700149,28068.569254116206,3540,0.07284300663536182,0.07297773882080513,3576.7525878275155
60,218.77006999999998,1321,28413,0.868144571802742,3.204431462434453e-05,1323.6940587555523,28605.05474642633,3592,0.07277263851188642,0.07292462527183818,3618.6793811863677
61,219.30919132499997,1331,29077,0.8681762475955156,3.129014083455329e-05,1323.9089673605038,29141.434913587516,3644,0.07237409575032176,0.0728532703888834,3660.103581054993
62,219.84820729999998,1335,29529,0.868951283960652,3.082043285665929e-05,1324.4700899227362,29680.244558200073,3691,0.07261293981028928,0.07278180616865985,3701.858977553214
63,220.38711792499998,1325,29948,0.8691522224557424,3.036551802591421e-05,1324.8848898049532,30230.82257808726,3722,0.07278614670811635,0.07273506611235186,3744.884935106046
64,220.9259232,1317,30632,0.8692686507714266,2.9652691481201657e-05,1324.9223764977435,30800.41529819416,3785,0.07318284257560569,0.07268843679343544,3789.277628032272
65,221.464623125,1316,31342,0.8701622824311823,2.8980293160300482e-05,1324.4887086909982,31379.267299371975,3836,0.07303033876395722,0.0726252955225806,3833.727876056009
66,222.0032177,1318,31785,0.86932404321908,2.8533299741329308e-05,1323.57901651224,31959.53763392088,3875,0.07295964743857904,0.07251756546295704,3876.679018777247
67,222.54170692499997,1325,32141,0.8705973257298546,2.8251470850527473e-05,1322.7578201091505,32539.26904346582,3911,0.07305830361946404,0.0723921730161301,3918.8332238555045
68,223.0800908,1330,32597,0.8704844215444587,2.7840356335576126e-05,1322.4695916102037,33119.46753040776,3947,0.07285821253020272,0.07227164199595043,3961.4702258261036
69,223.61836932499997,1319,33018,0.8703398065724872,2.7456380534795646e-05,1322.1723255339616,33700.15162291267,3967,0.07270449565613887,0.07214006561886044,4003.569956284324
70,224.1565425,1304,33774,0.8697053263836744,2.678488840109869e-05,1321.393893406394,34279.07544904688,3992,0.07199778002215328,0.07200678710650898,4044.8684907924653
71,224.69461032499999,1298,34523,0.8700422735223692,2.6186373920914048e-05,1320.419805658087,34856.43717864438,4041,0.07182922366506723,0.07185638064209672,4085.325013023999
72,225.23257279999999,1301,35276,0.8700397124616915,2.5608232890704683e-05,1319.7049763301295,35428.447462002994,4103,0.07175426855975452,0.07168499516124208,4124.78776416219
73,225.77042992499997,1311,36222,0.8700678242154535,2.4922454934417618e-05,1319.323631339303,35989.048200411555,4175,0.07137791093217205,0.07151114199443143,4163.574282543126
74,226.30818169999998,1307,36910,0.8699872642519537,2.4435785306068413e-05,1319.1988946521753,36539.528075380396,4235,0.07154797937616832,0.07132889926369697,4201.769349249053
75,226.84582812499997,1306,37379,0.8700242014773532,2.4118432109260478e-05,1318.967745588776,37085.46229812609,4278,0.07167998022872214,0.07112983013441161,4238.851480214646
76,227.3833692,1320,37931,0.8696880407569096,2.3754828897241528e-05,1318.500441686083,37621.48440508207,4326,0.07140701566510803,0.07095469974809174,4275.49951301267
77,227.92080492499997,1326,38292,0.87010037851645,2.3537855827421143e-05,1317.9181181906474,38143.15995832222,4342,0.07099017317550217,0.07080941077485459,4311.773335749312
78,228.45813529999998,1347,38540,0.8693067287349536,2.3372858568412165e-05,1317.290199098482,38656.423180592246,4374,0.07074964288658363,0.07067750315107504,4347.662619764804
79,228.99536032499998,1368,38867,0.8691277262341458,2.3177357429108665e-05,1316.8208566445192,39152.43908129215,4405,0.07038963451220301,0.07054016752762526,4382.3934177443725
80,229.53248,1349,39381,0.86926662631248,2.2856190216461925e-05,1316.4333733493145,39621.38850257007,4418,0.07014564777432165,0.07038917034778742,4414.864005979666
81,230.069494325,1321,40166,0.8686441253792921,2.2361800112737602e-05,1315.653831343833,40075.99234410668,4445,0.06985826355219227,0.07025392348676697,4446.344741670168
82,230.60640329999998,1306,40766,0.868302707705708,2.200463020034739e-05,1315.1813178101177,40508.38030306384,4473,0.06968866384450019,0.07013350953730654,4476.668123853229
83,231.143206925,1306,41218,0.8687016218294412,2.176542447959113e-05,1314.6148044123058,40897.139957869156,4510,0.06973642003260998,0.07003193320468017,4504.0611112368615
84,231.67990519999998,1320,41511,0.8683284847277679,2.1605048013927694e-05,1313.3310154250128,41242.484518334844,4532,0.06939541422073575,0.06995103437660749,4528.124464880205
85,232.216498125,1322,41821,0.8683608504247778,2.1441538073156815e-05,1312.4431810459782,41561.57079435468,4564,0.0695134664331744,0.06986332069724127,4550.177489863782
86,232.75298569999998,1314,42280,0.868249886800152,2.1194402353174633e-05,1311.92196878749,41858.00645541155,4597,0.06958122292547232,0.06977873737453182,4570.953453079257
87,233.289367925,1298,42760,0.867778574191436,2.092949144256032e-05,1311.8018301660036,42123.578631451775,4624,0.06961148853795562,0.06969081819629838,4589.701556094047
88,233.8256448,1297,43027,0.8676471171202086,2.079192708172079e-05,1312.0724365217534,42344.961833789304,4638,0.06946582838002915,0.0696251903582016,4606.047317039935
89,234.36181632499998,1302,43047,0.8677489292852631,2.078689494035844e-05,1312.2965639085573,42516.865047905136,4631,0.06919957325645325,0.06958317595672464,4619.204806450794
90,234.89788249999998,1305,43056,0.8672589311593729,2.0772171472764075e-05,1312.282044893404,42662.89619243843,4618,0.06881820408926738,0.0695797061762511,4631.705701148295
91,235.433843325,1312,43147,0.8668004592010585,2.071950422376141e-05,1312.1768103467552,42792.10636707432,4635,0.06885091253555917,0.06958562579490182,4643.135223900792
92,235.9696988,1313,43317,0.8665578153052318,2.063036413925416e-05,1312.125257650205,42886.932750457854,4661,0.06907045913822293,0.06961187104217273,4652.784253323882
93,236.505448925,1309,43439,0.8666098942893835,2.056990017302121e-05,1311.9705995605539,42939.68515708088,4669,0.06911486458135126,0.06967161517829915,4660.205780425289
94,237.04109369999998,1305,43579,0.8664654382940954,2.0496414777264877e-05,1311.3469840766243,42958.543908128464,4694,0.06946234968015066,0.06974641575166833,4665.185983827404
95,237.576633125,1304,43662,0.8658853313998153,2.044207307710032e-05,1310.2780357425738,42941.60694466383,4710,0.06962570090060369,0.06983629408644962,4667.6102289971695
96,238.11206719999998,1311,43656,0.8659634438688039,2.04501935026285e-05,1309.131486556862,42892.256449748886,4724,0.06979651042447108,0.0699143099843776,4667.013522389999
97,238.64739592499998,1307,43620,0.8653764850454776,2.0451787513186906e-05,1308.1626763912864,42821.10473623329,4734,0.07008827580769153,0.06999962931502138,4665.012163355818
98,239.1826193,1301,43538,0.865240351462597,2.048536476223683e-05,1307.1246687353937,42741.98557158631,4722,0.0700804328516122,0.07008974876439274,4662.628643910305
99,239.71773732499997,1302,43402,0.8654717432609225,2.055752359289602e-05,1306.302928718632,42671.804253776165,4705,0.06995725278662515,0.07017261181827524,4661.056264014951
100,240.25275,1295,43026,0.8654328986505,2.07383695250653e-05,1305.258805408931,42603.05929919056,4691,0.07042750290712176,0.07026746104891667,4659.861559718137
101,240.787657325,1298,42686,0.8649750843904328,2.0899175712535828e-05,1304.3798274026344,42529.57158712461,4675,0.0705765163812335,0.07036808602890993,4658.578314344517
102,241.3224593,1304,42496,0.8650023747478218,2.099928080083079e-05,1304.3177195406215,42467.0129787756,4667,0.07062058133319395,0.0704625995488853,4658.589866135044
103,241.85715592499997,1312,42167,0.864426750181391,2.1158407788064888e-05,1304.5728782078618,42408.09705769019,4660,0.07083834927444124,0.07055442823192677,4659.1005005775
104,242.3917472,1319,41973,0.8640504083213235,2.1253761212213398e-05,1305.1066841830823,42343.92330517031,4647,0.0707325173142462,0.07064258368388715,4659.422908786066
105,242.92623312499998,1308,42016,0.8638615542876957,2.122092842408607e-05,1306.2906294593058,42283.8074475065,4639,0.0706869125806307,0.07071559371666755,4660.0505560713955
106,243.46061369999998,1310,41647,0.8647030136247108,2.1436968877822118e-05,1307.4876214636547,42242.91607963859,4617,0.07089205607895774,0.07078579783328579,4662.153955921902
107,243.994888925,1308,41401,0.863747888775786,2.1543608330027337e-05,1307.955854039704,42225.716211011895,4616,0.07126625635573043,0.0708478144578351,4665.205848376997
108,244.52905879999997,1314,41637,0.8628771528607923,2.1399130839986912e-05,1307.9645971595935,42225.53663729561,4644,0.07125910569715642,0.07089077786964428,4668.363473691274
109,245.063123325,1328,41812,0.8633129275796555,2.1324793191869765e-05,1307.8394980633511,42244.70703753119,4652,0.0708836125697751,0.07094262473741601,4673.524405988721
110,245.59708249999997,1321,41571,0.8623491049005171,2.1424822482000425e-05,1307.8969399080138,42290.06536954323,4641,0.0711304106402414,0.07097875980540694,4680.26127432096
111,246.130936325,1312,41305,0.862505803534046,2.15664192117132e-05,1308.1798228725202,42374.92550227557,4624,0.07142798042919413,0.07099584004207536,4689.260866610705
112,246.66468479999997,1310,41366,0.8631762817630669,2.1549238110721664e-05,1308.583795782439,42505.07177965444,4634,0.07162966748003881,0.07099626651137782,4701.024009603751
113,247.19832792499997,1303,41722,0.8629529675416884,2.135018104212594e-05,1308.3795782463676,42683.14002582084,4657,0.0716085072152904,0.07098042302632818,4715.21964257392
114,247.7318657,1295,42308,0.8621360146885437,2.102104246674332e-05,1307.8796575233614,42903.63136197793,4697,0.07151358647186076,0.07094916172904393,4731.742983985957
115,248.265298125,1293,42443,0.8624878814902607,2.095960829866976e-05,1307.691748397447,43157.31547713342,4688,0.07115787017398384,0.07089234141118064,4749.878343790255
116,248.79862519999998,1292,42347,0.862427427307537,2.1006635666972037e-05,1307.827312056873,43437.107907313046,4684,0.07125450818236916,0.0707959547125074,4768.2949330674755
117,249.33184692499998,1289,42625,0.8621956715984717,2.0858227007898e-05,1308.2794400778928,43734.12575596192,4695,0.07104312118890059,0.07067017729536655,4786.86588597694
118,249.8649633,1298,43150,0.8614594306460737,2.058347105624758e-05,1308.8190672495161,44062.90316881386,4723,0.07049838836764796,0.07052965893117494,4807.208000181112
119,250.397974325,1322,43587,0.861591555373828,2.0385462093311913e-05,1308.9607465627512,44430.911798680885,4766,0.07020753144936623,0.07037682928537646,4829.56184738037
