,x_(nm),baseline_dark,baseline_light,baseline_mirror,baseline_calibration,baseline_dark_smoothed,baseline_light_smoothed,raw_signal,calibrated_signal,calibrated_signal_smoothed,raw_signal_smoothed
0,186.23,1024,1032,0.3621226043733797,0.04526532554667246,1006.5106450256274,3651.8531988831646,1003,-0.9505718364801217,,1231.8482534442585
1,186.775442325,1021,1013,1.18800459154587,-0.14850057394323374,1013.2933442107684,2747.800091699312,1007,2.0790080352052724,,1152.771823646408
2,187.3207793,1019,1008,1.908567993433533,-0.17350618122123027,1019.6298871491824,1956.9722991793028,1001,3.1231112619821446,,1084.2533284495871
3,187.86601092499998,1026,1000,1.7279185264672412,-0.06645840486412466,1025.5332559116207,1275.496860221264,1002,1.5950017167389918,,1025.9183228718036
4,188.41113719999998,1033,1000,1.043047789334166,-0.031607508767702006,1031.0164325688343,699.5008137233212,1007,0.8217952279602522,,977.3923619310654
5,188.956158125,1020,1012,0.840365554154959,-0.10504569426936987,1036.0923991915743,225.11119858360144,1003,1.7857768025792877,,938.3010006453802
6,189.50107369999998,1013,1016,0.8202728553565946,0.27342428511886485,1040.7741378505923,-151.54494629976807,983,-8.202728553565946,,908.2697940327561
7,190.045883925,1038,1035,0.837733819880384,-0.2792446066267947,1045.0746306166393,-434.3405820286612,999,10.890539658444993,,886.9242971112008
8,190.59058879999998,1054,1055,0.8116271105193998,0.8116271105193998,1049.0068595604664,-627.1486697049513,1029,-20.290677762984995,,873.8900648987221
9,191.135188325,1058,1054,0.8262856362484797,-0.20657140906211993,1052.5838067528252,-733.8421704305119,1046,2.4788569087454393,,868.792652413328
10,191.67968249999998,1066,1056,0.8012221689422371,-0.0801222168942237,1055.8184542644665,-758.2940453072179,1061,0.40061108447111854,,871.2576146730263
11,192.22407132499998,1060,1048,0.7775424502505143,-0.06479520418754285,1058.7237841661417,-704.3772554369398,1054,0.3887712251252571,,880.9105066958247
12,192.7683548,1039,1039,0.7753865851703869,inf,1061.3127785286022,-575.9647619215511,1038,-inf,,897.3768834997312
13,193.312532925,1028,1036,0.7956261498651602,0.09945326873314503,1063.598419422599,-376.9295258629304,1032,0.3978130749325801,,920.2823001027537
14,193.8566057,1051,1037,0.7908861747409445,-0.05649186962435317,1065.5936889188831,-111.14450836294372,1035,0.9038699139896508,,949.2523115228998
15,194.400573125,1073,1049,0.7942231778648126,-0.03309263241103386,1067.311569088206,217.51732947652908,1045,0.926593707508948,,983.9124727781776
16,194.9444352,1083,1063,0.7947581770897779,-0.0397379088544889,1068.765042001319,605.18302655362,1066,0.6755444505263113,,1023.888338886595
17,195.488191925,1097,1070,0.7914877943554887,-0.02931436275390699,1069.9670897289732,1047.9796217664516,1086,0.3224579902929769,,1068.8054648661596
18,196.0318433,1106,1089,0.7911116722494277,-0.04653598072055457,1070.9306943419197,1542.0341540131503,1098,0.3722878457644366,,1118.289405734879
19,196.575389325,1100,1088,0.7900325230816138,-0.06583604359013448,1071.6688379109098,2083.473662191847,1086,0.9217046102618827,,1171.9657165107617
20,197.11883,1080,1078,0.798472358442206,-0.399236179221103,1072.194502506695,2668.425185200666,1079,0.399236179221103,,1229.459952211815
21,197.662165325,1078,1072,0.7981102791346143,-0.13301837985576906,1072.520670200026,3293.0157619377296,1083,-0.6650918992788453,,1290.3976678560475
22,198.2053953,1077,1081,0.8040599544843242,0.20101498862108105,1072.6603230616545,3953.3724313011708,1082,1.0050749431054053,,1354.4044184614665
23,198.74851992499998,1056,1076,0.8074165803696804,0.040370829018484024,1072.6264431623313,4645.622232189115,1075,0.7670457513511965,,1421.1057590460796
24,199.2915392,1051,1076,0.8060625325032217,0.032242501300128866,1072.432012572808,5365.892203499682,1083,1.0317600416041237,,1490.127244627895
25,199.83445312499998,1088,1089,0.8122546130835153,0.8122546130835153,1072.0900133638156,6110.3093841308955,1099,8.934800743918668,-inf,1561.0944302248904
26,200.3772617,1089,2011,0.8144257223941842,0.000883325078518638,1071.7789077895104,6772.876214636669,1188,0.08744918277334517,-inf,1624.2041269337612
27,200.919964925,1059,5859,0.8150182986479615,0.00016979547888499197,1070.8602686357356,7449.276563455428,1552,0.08370917109030104,-inf,1687.956895965901
28,201.4625628,1044,10251,0.8232603193402961,8.941678281093691e-05,1069.6024598518447,8140.40891073395,1951,0.08110102200951977,-inf,1752.5244286393465
29,202.005055325,1049,12107,0.8194894939197722,7.410829208896475e-05,1069.1623819338852,8847.562096536558,2130,0.0801110637481709,-inf,1818.8967587034467
30,202.5474425,1070,12938,0.8269202298982968,6.967646022061821e-05,1069.1608643457178,9568.267140818407,2223,0.08033695863437279,-inf,1886.1929149017737
31,203.089724325,1057,13571,0.8298864771900701,6.631664353444702e-05,1068.233663276611,10301.356859724825,2275,0.08077367182495647,-inf,1953.5263086366247
32,203.63190079999998,1053,14231,0.8293789756785952,6.293663497333399e-05,1066.6287798137919,11047.751795057433,2327,0.08018127295602749,inf,2020.6473985820355
33,204.173971925,1060,14719,0.8303112569560028,6.078858312877977e-05,1065.7441165145099,11806.333461686336,2374,0.07987619823121661,inf,2088.6192665745143
34,204.71593769999998,1075,15042,0.832804584655424,5.9626590152174695e-05,1065.2004801920564,12568.289066569785,2405,0.07930336490239234,inf,2157.072595075725
35,205.257798125,1082,15313,0.8371769300637781,5.882769517699235e-05,1064.7532446940836,13327.644272803205,2431,0.07935856079376268,inf,2225.192348637526
36,205.7995532,1076,15688,0.8381556767340916,5.736077721968873e-05,1064.5702507417857,14079.405784955221,2452,0.07892842945429168,inf,2292.896147138056
37,206.34120292499998,1076,16265,0.840625124319978,5.534433631707012e-05,1064.4155473509952,14821.982672313925,2488,0.078146202879703,inf,2359.380846678249
38,206.88274729999998,1069,16890,0.8415937915656597,5.3194727992267223e-05,1063.4741896758499,15555.221930281248,2548,0.07867500270056323,0.2979234129070513,2423.838614691113
39,207.424186325,1054,17232,0.8431564976534377,5.2117474202833334e-05,1061.6757344447012,16270.59471335673,2574,0.07921856078830666,0.25343926735477995,2486.180411787309
40,207.96552,1042,17506,0.844165982526256,5.127344403099222e-05,1060.4512899499218,16965.82944121012,2575,0.07860218969951108,0.22388955881572806,2546.870189585219
41,208.506748325,1043,17873,0.8476484869242688,5.036532899134098e-05,1059.6655416883532,17644.949806337292,2597,0.07826772125254389,0.19670218721568702,2605.6054950281505
42,209.0478713,1061,18266,0.8491768105118729,4.9356397007374187e-05,1058.8445038392513,18305.345828897247,2654,0.07862474043274707,0.16330886063316616,2661.932478651787
43,209.588888925,1063,18759,0.8502736512177026,4.8048917903351185e-05,1058.5208951504928,18939.740265917324,2702,0.07875217644359259,0.1191101153218441,2716.235656526709
44,210.12980119999997,1049,19170,0.8513731200582484,4.698267866333251e-05,1058.9568280142041,19544.92407529012,2718,0.07841409068910195,0.07517427487716492,2768.1127092345837
45,210.670608125,1047,19618,0.8534308197221572,4.595502771644808e-05,1059.7031642845616,20110.29615619794,2737,0.07766399684079725,0.0480432266774244,2815.734739178636
46,211.2113097,1051,20004,0.8557212941711507,4.514964882452122e-05,1059.9852997802693,20633.000543613278,2771,0.0776573959781765,0.006333710361256786,2858.6056988832715
47,211.751905925,1057,20219,0.8575135521308375,4.4750733333203085e-05,1060.4055811003445,21109.750277469073,2805,0.078224281866439,-0.07046610567045054,2896.683526240629
48,212.29239679999998,1058,20513,0.8580327959771828,4.4103459058194955e-05,1060.7983193277107,21532.430428774867,2852,0.07912160555040175,-0.10002739391340934,2929.316813517804
49,212.83278232499998,1052,20928,0.8587529108532552,4.320551976520705e-05,1060.4639063172235,21903.45672608624,2884,0.0791525122098593,-0.13434022445625793,2956.60236924953
50,213.37306249999997,1058,21396,0.8598387128136875,4.2277446789934485e-05,1060.1599809735012,22224.339396135383,2902,0.07795961188063918,-0.15834045445387845,2978.9426261069893
51,213.91323732499998,1069,21899,0.8611437003932625,4.134151226083833e-05,1060.2803007995449,22487.6039774396,2938,0.07726728641550684,0.07731377566038952,2995.672404810923
52,214.45330679999998,1083,22549,0.8624756676121401,4.017868571751328e-05,1060.3256698905773,22723.036920428112,3006,0.07726361263477804,0.0773495168698141,3009.878389091428
53,214.993270925,1090,23136,0.8630074298534857,3.9145760221967055e-05,1058.9338376859976,23030.090783482763,3054,0.0768822730759433,0.07729675123339662,3029.7199257060734
54,215.5331297,1065,23609,0.8629495266956824,3.8278456649027784e-05,1056.587057464475,23441.62155428164,3065,0.07655691329805557,0.07716770276081966,3057.879068608517
55,216.07288312499998,1050,24093,0.8648478670709356,3.753191281825004e-05,1055.17348071302,23891.181816122215,3099,0.07690288936459433,0.07701194096235378,3090.415615302665
56,216.61253119999998,1060,24544,0.8650803831098881,3.683701171477977e-05,1055.0076558925255,24346.898185688904,3146,0.0768420064370306,0.07688773820096005,3125.5011891548475
57,217.152073925,1067,24851,0.8652291434094919,3.637862190588176e-05,1055.0938413100887,24810.130082221094,3174,0.07664975635569288,0.07679080779399902,3162.098031665436
58,217.69151129999997,1060,25083,0.8680312398394996,3.613334054195977e-05,1055.2714217762375,25287.472921243483,3189,0.07692788201383235,0.07665220574239422,3198.751500600179
59,218.230843325,1060,25497,0.868212549145114,3.5528606176908544e-05,1055.6886679199781,25780.572243991446,3223,0.07684837516065318,0.07648352058950186,3235.817594962451
60,218.77006999999998,1058,25996,0.868144571802742,3.481211692207643e-05,1056.438243221797,26282.32211375066,3267,0.07689996628086683,0.07629587089826963,3273.412263018352
61,219.30919132499997,1055,26582,0.8681762475955156,3.401011664494518e-05,1057.263471426286,26782.70923463674,3306,0.0765567725677716,0.07611225477349931,3310.843620466991
62,219.84820729999998,1045,27126,0.868951283960652,3.33174066930199e-05,1058.1487009898099,27285.30258895959,3341,0.07649676576717368,0.07592137800977088,3348.4399873156167
63,220.38711792499998,1044,27569,0.8691522224557424,3.276728454121555e-05,1059.3630433305195,27801.425785407966,3382,0.07660991125736195,0.07570583993850977,3386.9814038822424
64,220.9259232,1053,28208,0.8692686507714266,3.201136625930497e-05,1060.5491857120003,28335.912455547714,3424,0.07589894940081209,0.07548851212676147,3426.651883394802
65,221.464623125,1049,28844,0.8701622824311823,3.130643217957123e-05,1061.4541212711295,28880.295952342647,3447,0.07507282436661182,0.07527735230323071,3466.6040453916744
66,222.0032177,1053,29244,0.86932404321908,3.0836935306270795e-05,1061.6106140569232,29427.187999727634,3475,0.07468705731178786,0.07504357667470761,3505.378468368412
67,222.54170692499997,1066,29594,0.8705973257298546,3.051729268542676e-05,1061.1676821671863,29972.767152143304,3521,0.0749199535427227,0.07480217874017453,3543.195497066683
68,223.0800908,1069,30045,0.8704844215444587,3.004156617698988e-05,1061.300369204265,30517.3122381022,3545,0.07438291785422695,0.07457008564547948,3581.5075992660527
69,223.61836932499997,1060,30484,0.8703398065724872,2.9579248456106826e-05,1061.5159573263065,31061.91564927798,3563,0.07403685888563538,0.07434412544786982,3619.9599990939073
70,224.1565425,1050,31146,0.8697053263836744,2.8897704890472965e-05,1061.3485469659358,31605.407076037358,3606,0.0738625337000489,0.07411278955648971,3657.776393576228
71,224.69461032499999,1049,31792,0.8700422735223692,2.8300500065783077e-05,1060.9207003555937,32149.253776981874,3659,0.07386430517169383,0.07386334783480457,3694.9729325691833
72,225.23257279999999,1043,32443,0.8700397124616915,2.77082710975061e-05,1060.2105143944166,32688.515730820007,3715,0.0740365003725363,0.07362704560062534,3731.919703730477
73,225.77042992499997,1043,33290,0.8700678242154535,2.6981357156183627e-05,1059.5457201748422,33216.76873768312,3780,0.07384797453647458,0.07341527395012978,3768.4916985661466
74,226.30818169999998,1045,33941,0.8699872642519537,2.644659728392369e-05,1058.7594509501712,33732.84812792978,3825,0.07352154044930785,0.07324039210304571,3804.8007429386116
75,226.84582812499997,1034,34402,0.8700242014773532,2.6073609490450527e-05,1057.6552809802963,34242.188158281526,3858,0.07363187320103229,0.07309348098067897,3841.2089741556265
76,227.3833692,1056,34976,0.8696880407569096,2.5639387994012667e-05,1056.8763052390566,34743.320664114035,3911,0.07320045272290616,0.07293213805989908,3877.0479512559
77,227.92080492499997,1066,35377,0.87010037851645,2.53592252780872e-05,1056.2669822645837,35230.11273188453,3928,0.07257810274588557,0.0727769572182154,3912.3593965887494
78,228.45813529999998,1092,35608,0.8693067287349536,2.5185616199297534e-05,1056.2656458809738,35706.96083716437,3973,0.07255976027017619,0.07264334054837086,3948.1639448231363
79,228.99536032499998,1117,35899,0.8691277262341458,2.4987859416771485e-05,1057.1687920450997,36168.11402296698,4028,0.0727396587622218,0.07250378883442787,3983.3453758861274
80,229.53248,1097,36396,0.86926662631248,2.462581450784668e-05,1057.3711522344583,36603.80337040406,4044,0.07257227535462417,0.07236432981206166,4015.902647851516
81,230.069494325,1081,37146,0.8686441253792921,2.4085515745994513e-05,1056.6281908989808,37021.6035470785,4050,0.07150989624985771,0.07225119365345802,4047.0271806835167
82,230.60640329999998,1062,37741,0.868302707705708,2.3673020194272146e-05,1056.2838795895514,37413.47473328882,4051,0.07075865736067945,0.07216025299434538,4077.149629663108
83,231.143206925,1053,38182,0.8687016218294412,2.3396849412304163e-05,1056.300799565089,37761.70989150305,4103,0.0713603907075277,0.07209151294980932,4104.765204194808
84,231.67990519999998,1049,38387,0.8683284847277679,2.3255891711601263e-05,1055.8386373417088,38063.918820357605,4143,0.07195372895569431,0.07205290395263865,4128.955718136232
85,232.216498125,1052,38607,0.8683608504247778,2.31223765257563e-05,1055.2992819769215,38334.203085006855,4163,0.07193371337162785,0.07201624647114173,4150.32360868868
86,232.75298569999998,1059,39057,0.868249886800152,2.2849883857049108e-05,1054.5049944505902,38576.259643479294,4199,0.07174863531113419,0.07201302352689694,4170.44605766827
87,233.289367925,1054,39454,0.867778574191436,2.2598400369568647e-05,1053.6451561756578,38783.838886497244,4215,0.0714335435682065,0.0720630115005958,4189.926680105924
88,233.8256448,1044,39637,0.8676471171202086,2.2481981631907562e-05,1052.6941946589757,38950.66046796002,4213,0.07124539979151506,0.07216918972423478,4208.049853903745
89,234.36181632499998,1037,39663,0.8677489292852631,2.246541006796622e-05,1051.764819135181,39067.59860925427,4226,0.07164219270674427,0.07231933019109667,4223.54114475971
90,234.89788249999998,1027,39610,0.8672589311593729,2.2477747483590515e-05,1051.2852386237314,39155.445967065316,4231,0.07201870293742402,0.07245429817988894,4236.547486919215
91,235.433843325,1033,39624,0.8668004592010585,2.246120751473293e-05,1050.4916532650593,39225.58345602317,4253,0.07232508819744003,0.07257060862095281,4247.157398808498
92,235.9696988,1048,39769,0.8665578153052318,2.2379530882601992e-05,1049.645405331924,39258.60320731992,4283,0.07239778240521745,0.07269983989517231,4255.231398219584
93,236.505448925,1043,39860,0.8666098942893835,2.232552475176813e-05,1048.8733606650007,39248.04881197687,4298,0.07266958306700527,0.07286261815023612,4260.781739110656
94,237.04109369999998,1040,39953,0.8664654382940954,2.226673446647895e-05,1048.2111486103674,39205.12928945087,4317,0.07296808884665153,0.07302535440757488,4263.8201997779415
95,237.576633125,1035,39937,0.8658853313998153,2.225811864171033e-05,1047.5520170332081,39126.50118915416,4327,0.0732737265685104,0.07320574926019732,4264.702439466271
96,238.11206719999998,1036,39820,0.8659634438688039,2.232785282252485e-05,1046.8637341728945,39013.7240934102,4332,0.07359260290304191,0.07340316340279787,4263.4504745293525
97,238.64739592499998,1045,39713,0.8653764850454776,2.2379654625154587e-05,1046.2548189086756,38879.083286143905,4333,0.07358430440750828,0.07361103344585043,4260.649120025288
98,239.1826193,1047,39532,0.865240351462597,2.2482534791804522e-05,1045.3170400235365,38734.85358671696,4333,0.07387760932586966,0.07384010175533687,4257.72998255898
99,239.71773732499997,1051,39334,0.8654717432609225,2.260720798424686e-05,1044.280368751254,38596.5641803884,4339,0.07433249985220367,0.07407672309160455,4255.787900065605
100,240.25275,1055,38940,0.8654328986505,2.284368216049888e-05,1043.0016308409956,38457.85000792696,4312,0.07440187279674484,0.07431678094126953,4253.76878298481
101,240.787657325,1049,38517,0.8649750843904328,2.3085702049493775e-05,1041.680106004646,38313.502004574686,4282,0.07463607472601337,0.07456796458747073,4251.662755668223
102,241.3224593,1055,38231,0.8650023747478218,2.326776346965305e-05,1040.9841672517864,38180.06004665944,4258,0.07452664639329871,0.0748184971761989,4251.137421006057
103,241.85715592499997,1052,37867,0.864426750181391,2.3480286572902106e-05,1040.6970486307532,38054.24693650973,4226,0.07452642958239128,0.07504726489355697,4250.75412806624
104,242.3917472,1032,37574,0.8640504083213235,2.364540551478637e-05,1040.9257514326287,37926.23998278485,4209,0.0751214533204763,0.07528378382578631,4251.258125891785
105,242.92623312499998,1031,37450,0.8638615542876957,2.3720078922751743e-05,1042.1123694760724,37804.03678452441,4219,0.07561961160573255,0.07552943571416809,4253.75410541567
106,243.46061369999998,1046,37013,0.8647030136247108,2.4041566258645726e-05,1043.4329203379264,37707.089469749444,4207,0.07599539094357914,0.07576922079663309,4258.367460191542
107,243.994888925,1041,36738,0.863747888775786,2.4196652065321623e-05,1044.1465718362617,37638.32039230714,4190,0.0761952573536978,0.07597153750468273,4263.394369068301
108,244.52905879999997,1035,36887,0.8628771528607923,2.4067755016757565e-05,1044.4112437427602,37591.126503430845,4204,0.07627071564810473,0.07613267699744167,4268.270878162504
109,245.063123325,1044,37031,0.8633129275796555,2.3989577557997484e-05,1044.8859770323024,37570.07356904954,4237,0.07659872114268597,0.07629267420543977,4275.561598224113
110,245.59708249999997,1047,36847,0.8623491049005171,2.408796382403679e-05,1045.0217898479946,37582.37011030756,4272,0.07768368333251865,0.07644337247419072,4284.935151418976
111,246.130936325,1055,36581,0.862505803534046,2.4278156942353377e-05,1045.2866429590506,37641.50784842166,4266,0.0779571619418967,0.07656131741352176,4296.843235407288
112,246.66468479999997,1056,36616,0.8631762817630669,2.4273798699748787e-05,1045.8328387958757,37754.84923780761,4231,0.0770693108717024,0.07665321997528507,4312.473600760975
113,247.19832792499997,1049,36885,0.8629529675416884,2.408061635064428e-05,1046.2652608212895,37921.40777820489,4211,0.07614290890073722,0.07670435660799524,4330.703934403868
114,247.7318657,1045,37467,0.8621360146885437,2.3670748852027448e-05,1046.3827493261253,38134.0281999585,4242,0.07567538407993175,0.07671705258710608,4350.793132347195
115,248.265298125,1036,37645,0.8624878814902607,2.3559449356449524e-05,1046.2438107318198,38388.934630455224,4277,0.0763561753642529,0.07671950481030511,4373.904278692525
116,248.79862519999998,1040,37489,0.862427427307537,2.3661209561511616e-05,1046.126865840656,38678.60284491081,4295,0.07701723712272031,0.07670029505297812,4398.998278556622
117,249.33184692499998,1044,37805,0.8621956715984717,2.345408643939152e-05,1046.316337855877,38991.11551790452,4326,0.07697631169408296,0.07664880225037467,4424.865387664414
118,249.8649633,1056,38385,0.8614594306460737,2.3077484814650102e-05,1046.908310493989,39342.995266030186,4384,0.07680186946315554,0.07656549386938538,4452.926725407058
119,250.397974325,1060,38794,0.861591555373828,2.2833295048863837e-05,1047.2878887403817,39743.70629006243,4430,0.07694820431467113,0.07645710314403568,4483.558925456889
