,x_(nm),baseline_dark,baseline_light,baseline_dark_smoothed,baseline_light_smoothed,raw_signal,calibrated_signal,calibrated_signal_smoothed,raw_signal_smoothed
0,186.23,1272,1277,1262.87798931861,4423.341725401679,1214,-11.6,,1201.9641392438273
1,186.775442325,1267,1267,1266.7765350939594,3337.9588251104515,1216,-inf,,1205.199167749666
2,187.3207793,1270,1275,1270.548685579698,2389.7938500541472,1207,-12.6,,1208.4215686597158
3,187.86601092499998,1276,1285,1274.194247732958,1573.9994752101907,1199,-8.555555555555555,,1211.6279971850045
4,188.41113719999998,1286,1281,1277.7130285108717,885.728375556007,1198,17.6,,1214.81510853656
5,188.956158125,1285,1286,1281.1048348705708,320.1332260690215,1202,-83.0,,1217.979557925411
6,189.50107369999998,1276,1293,1284.3694737691878,-127.63329827334019,1216,-3.5294117647058822,,1221.1180005625852
7,190.045883925,1276,1298,1287.506752163855,-462.41852249365365,1234,-1.9090909090909092,,1224.227091659111
8,190.59058879999998,1284,1305,1290.5164770117042,-689.0697716144932,1233,-2.4285714285714284,,1227.3034864260162
9,191.135188325,1296,1314,1293.3984552698676,-812.4343706584332,1236,-3.3333333333333335,,1230.3438400743294
10,191.67968249999998,1305,1314,1296.1524938954776,-837.3596446480497,1245,-6.666666666666667,,1233.3448078150784
11,192.22407132499998,1294,1303,1298.778399845666,-768.6929186059151,1247,-5.222222222222222,,1236.3030448592913
12,192.7683548,1292,1304,1301.2759800775652,-611.2815175546057,1245,-3.9166666666666665,,1239.2152064179963
13,193.312532925,1300,1306,1303.6450415483073,-369.97276651669745,1231,-11.5,,1242.0779477022218
14,193.8566057,1301,1301,1305.8853912150246,-49.6139905147611,1227,-inf,,1244.8879239229955
15,194.400573125,1294,1300,1307.996836034849,344.9474854286236,1245,-8.166666666666666,,1247.6417902913458
16,194.9444352,1298,1299,1309.9791829649128,808.8643362908842,1252,-46.0,,1250.3362020183006
17,195.488191925,1314,1305,1311.832238962348,1337.2892370494465,1264,5.555555555555555,,1252.9678143148883
18,196.0318433,1324,1318,1313.5558109842868,1925.3748626817346,1277,7.833333333333333,,1255.533282392137
19,196.575389325,1320,1322,1315.1497059878616,2568.273888165175,1265,-27.5,,1258.0292614610746
20,197.11883,1310,1309,1316.6137309302042,3261.1389884771916,1249,61.0,,1260.4524067327295
21,197.662165325,1320,1310,1317.9476927684468,3999.1228385952154,1258,6.2,,1262.7993734181296
22,198.2053953,1326,1310,1319.1513984597218,4777.378113496662,1263,3.9375,,1265.0668167283031
23,198.74851992499998,1318,1311,1320.2246549611614,5591.057488158962,1245,10.428571428571429,,1267.2513918742784
24,199.2915392,1324,1325,1321.1672692298973,6435.313637559533,1254,-70.0,,1269.3497540670833
25,199.83445312499998,1341,1337,1321.9790482230376,7305.299236675663,1277,16.0,,1271.3585585177225
26,200.3772617,1342,2442,1322.703209585696,8065.419986862515,1277,-0.05909090909090909,,1273.1103988765074
27,200.919964925,1323,6979,1322.827515912,8840.188656594544,1264,-0.01043140028288543,-inf,1274.576071938185
28,201.4625628,1326,12309,1322.644589911411,9633.733334843186,1266,-0.005462988254575253,-inf,1275.6918843008657
29,202.005055325,1332,14507,1322.5908854107427,10443.896600149294,1279,-0.004022770398481973,-inf,1276.771636956645
30,202.5474425,1323,15451,1322.7450451878613,11263.176221431753,1288,-0.0024773499433748585,-inf,1277.9886067634357
31,203.089724325,1321,16142,1322.6836168429384,12090.710684273476,1290,-0.0020916267458336146,-inf,1278.8912772655985
32,203.63190079999998,1323,16824,1322.119187297535,12928.792430179372,1290,-0.002128894910005806,-inf,1279.6482366531275
33,204.173971925,1320,17323,1321.4586740356265,13773.65811230126,1295,-0.0015622070861713428,-inf,1281.104713583522
34,204.71593769999998,1321,17661,1320.7483068698925,14616.570296042664,1303,-0.001101591187270502,inf,1282.9431697206937
35,205.257798125,1323,17911,1320.4184013227682,15450.602459851569,1307,-0.0009645526886906198,inf,1284.6292554757506
36,205.7995532,1322,18282,1320.4342567215313,16269.837980474897,1299,-0.001356132075471698,inf,1286.3654895920386
37,206.34120292499998,1321,18865,1319.9507123603908,17076.155949171793,1294,-0.0015389876880984952,inf,1288.022990328182
38,206.88274729999998,1321,19495,1319.2034247661074,17868.754173367117,1288,-0.0018157807857378673,inf,1289.1727558947862
39,207.424186325,1326,19826,1318.6979999546736,18637.295816439426,1269,-0.003081081081081081,inf,1289.537339464063
40,207.96552,1320,20034,1318.169562164463,19377.933090216844,1265,-0.0029389761675750773,0.5088446415917194,1289.9406781580308
41,208.506748325,1313,20322,1317.1063897256763,20092.3754784929,1272,-0.0021568730601294124,0.44822718224540187,1290.5756868785004
42,209.0478713,1312,20706,1315.6420756981784,20777.152891344816,1289,-0.0011859337939568938,-0.8784514131676744,1291.0231715327393
43,209.588888925,1305,21195,1314.4496591089014,21428.0648712311,1295,-0.0005027652086475615,-0.8027767175414072,1291.6202631995948
44,210.12980119999997,1291,21555,1313.969308478083,22041.482842193054,1283,-0.00039478878799842083,-0.622969122186959,1292.3960225599424
45,210.670608125,1291,21954,1313.5232734603023,22604.78135405062,1283,-0.0003871654648405362,-1.5431685848572692,1292.8546965955948
46,211.2113097,1303,22324,1312.9514598291898,23115.100138168033,1278,-0.0011892869035726179,0.24011478569176853,1292.6689166232284
47,211.751905925,1311,22496,1312.6441142494482,23568.13574486353,1275,-0.001699315553457635,0.6070894432873502,1292.4208022831524
48,212.29239679999998,1315,22756,1312.2596887811476,23953.851548165974,1287,-0.001305909239307868,0.9455524307288302,1292.2727355092732
49,212.83278232499998,1314,23144,1311.6193118756685,24278.707060182092,1295,-0.0008703618873110399,1.5270497513687,1291.4904301342929
50,213.37306249999997,1309,23586,1311.2482049423293,24543.16340120907,1296,-0.0005835615208511021,-0.4258899232657447,1290.877052707851
51,213.91323732499998,1306,24156,1311.1278171645768,24740.403497247484,1302,-0.000175054704595186,0.0007743926538441866,1290.508912999137
52,214.45330679999998,1314,24765,1311.021631294002,24907.96992004301,1313,-4.2642104814293634e-05,-0.0006533584581800291,1289.5930825160008
53,214.993270925,1321,25171,1310.1797775713806,25158.115767061056,1315,-0.00025157232704402514,-0.0008394055826271143,1287.6819180502143
54,215.5331297,1317,25547,1309.551360166683,25535.58567577926,1304,-0.0005365249690466364,-0.0009129257694921589,1285.8198147183155
55,216.07288312499998,1315,26065,1310.151147251328,25963.812204126436,1290,-0.00101010101010101,-0.0009733900569183108,1284.7909578925667
56,216.61253119999998,1317,26527,1311.1794151622662,26406.61550657948,1295,-0.0008726695755652519,-0.0009940312252390202,1284.7686697320191
57,217.152073925,1320,26792,1312.3994880971004,26864.60651430332,1307,-0.0005103643216080402,-0.0009977417612442945,1285.4026818274235
58,217.69151129999997,1317,27038,1313.5565924482746,27341.80665473684,1297,-0.0007775747443723028,-0.0009970918570662431,1286.2407076037716
59,218.230843325,1321,27450,1314.196652245779,27837.983533035323,1277,-0.0016839526962378966,-0.0009799835659862414,1286.8711862103085
60,218.77006999999998,1316,27993,1314.88645269426,28349.428775283155,1277,-0.0014619335007684522,-0.0009517903843273245,1287.6795170898301
61,219.30919132499997,1310,28640,1315.744999886722,28867.26374323259,1277,-0.001207464324917673,-0.000913508119961982,1288.9347437087797
62,219.84820729999998,1312,29111,1316.697954653534,29391.862601643872,1275,-0.0013309831288895284,-0.0008834664420989796,1290.2101746358676
63,220.38711792499998,1314,29490,1317.7724297265822,29934.118507779895,1284,-0.0010647359454855196,-0.000865042445834966,1291.2880019932254
64,220.9259232,1309,30101,1318.6446125619807,30505.03864187126,1290,-0.0006599055293136983,-0.0008502157973292967,1292.2343201431268
65,221.464623125,1306,30736,1319.540351989827,31092.992751817113,1275,-0.001053346924906558,-0.0008617453480869605,1293.0689483340254
66,222.0032177,1312,31198,1320.2965412579872,31683.82690434603,1275,-0.0012380378772669477,-0.0008828682793692935,1293.5277809236654
67,222.54170692499997,1326,31636,1321.0603411175537,32274.32705157473,1281,-0.0014846585285384361,-0.000895208530883144,1294.0571473872321
68,223.0800908,1333,32077,1321.8344016851768,32867.11046682761,1283,-0.0016263335935467083,-0.0008758197488734679,1295.32653061222
69,223.61836932499997,1321,32498,1322.2109447552352,33461.62578993797,1288,-0.0010584725919748532,-0.0008396285403941917,1296.4678248657706
70,224.1565425,1317,33211,1322.0995719042082,34051.69931368708,1285,-0.0010033235091239732,-0.0008032208768805795,1297.0506693243087
71,224.69461032499999,1310,33895,1321.6400597974784,34634.05307028405,1286,-0.0007365352155899954,-0.0007652801252982997,1297.3059412443972
72,225.23257279999999,1309,34626,1321.0332963373776,35201.1868898496,1292,-0.0005102500225110304,-0.000742799616185194,1297.1907857482365
73,225.77042992499997,1318,35608,1320.6362318512056,35745.29096921719,1290,-0.0008165645960921551,-0.0007338024205761199,1297.0540895603274
74,226.30818169999998,1320,36270,1320.6828014224304,36264.419737705706,1288,-0.0009155937052932761,-0.0007296005825116817,1297.1355636594012
75,226.84582812499997,1318,36777,1320.5931731182789,36758.74864662776,1284,-0.0009588538875884825,-0.0007289653232747987,1296.89585268067
76,227.3833692,1331,37349,1319.9511427212142,37222.889170761926,1295,-0.0009995002498750624,-0.0007135150673583028,1296.4961607284174
77,227.92080492499997,1340,37662,1319.1839905773377,37651.47283064097,1315,-0.000688288089862893,-0.0006772866811293456,1296.4989693990556
78,228.45813529999998,1355,37945,1318.7655892545445,38041.054066909055,1340,-0.00040994807324405577,-0.0006285407377497645,1297.1830845545517
79,228.99536032499998,1360,38295,1318.60513261906,38379.32202314814,1346,-0.0003790442669554623,-0.0005759765155848153,1298.2504246981562
80,229.53248,1332,38719,1318.5940564904954,38657.7668803363,1337,0.00013373632546072165,-0.0005387751448678821,1299.1225395818456
81,230.069494325,1311,39338,1318.8033704047405,38880.25454710111,1317,0.0001577826281326426,-0.0005455709995653276,1299.2038551269316
82,230.60640329999998,1301,39762,1318.992480010847,39038.290765362,1299,-5.2000728010192146e-05,-0.0005454602822287784,1299.4797390654123
83,231.143206925,1303,40065,1319.2571519173455,39117.569254115995,1292,-0.00028378308652804294,-0.0005168920318585074,1300.549978481934
84,231.67990519999998,1317,40170,1319.1954744161562,39115.97501642091,1305,-0.000308856458960698,-0.0004903246444054904,1301.2729167138305
85,232.216498125,1317,40155,1318.889918231418,39042.67489637289,1311,-0.0001544878727019929,-0.0004859823849482632,1301.1778975740992
86,232.75298569999998,1314,40245,1318.3241296518354,38900.12351355562,1305,-0.00023117823842182323,-0.0004750401652988513,1300.9922535051505
87,233.289367925,1310,40352,1317.5134204624994,38686.67147613688,1300,-0.00025613441934327135,-0.0004510540264409379,1300.8756936736709
88,233.8256448,1304,40224,1316.9321388932678,38394.11848512916,1304,0.0,-0.00042977662134915966,1300.9162155427957
89,234.36181632499998,1310,39657,1316.338761919837,38017.02695417717,1304,-0.0001564659556158239,-0.0003908759356787915,1301.387007633217
90,234.89788249999998,1315,39005,1315.7108654782417,37571.7703232229,1286,-0.0007694348633589811,-0.00036008885827379394,1301.7762123717162
91,235.433843325,1315,38502,1315.0506466737384,37067.37035946383,1288,-0.0007260601823217791,-0.00037065555466855523,1301.1917144215927
92,235.9696988,1307,37996,1314.5461505356607,36496.790142471385,1286,-0.0005723786420998119,-0.00040619789618786243,1300.184670094428
93,236.505448925,1303,37311,1314.0192529841875,35861.013952750225,1272,-0.0008609197956009776,-0.0004398392575064682,1299.1082017712495
94,237.04109369999998,1306,36568,1313.3498153978321,35165.893474370205,1278,-0.0007940559242243775,-0.00045812274127778475,1298.1626763912861
95,237.576633125,1303,35714,1312.5041563795078,34411.74925819319,1281,-0.0006393304466594985,-0.0004570755253496666,1297.6159369407892
96,238.11206719999998,1308,34803,1311.6607171170103,33609.58255000049,1288,-0.0005971040453799074,-0.00047471856821297456,1296.640603411151
97,238.64739592499998,1321,33918,1310.7404244716502,32772.731613399446,1292,-0.0008896524220020247,-0.0005078334729716875,1295.237763029715
98,239.1826193,1321,32875,1309.8198147183152,31918.764887086298,1285,-0.0011409013120365088,-0.0005305342297479415,1294.1347935400327
99,239.71773732499997,1309,31735,1309.2047838002875,31068.46589956677,1285,-0.0007887990534411359,-0.0005535028004851845,1293.245011212007
100,240.25275,1311,30477,1308.790368977755,30219.236857006377,1303,-0.00027429198381677297,-0.0005883755485808499,1292.1556547146913
101,240.787657325,1324,29236,1308.352850574167,29375.981743640292,1312,-0.0004299226139294927,-0.0006255214202313926,1290.915694579694
102,241.3224593,1325,28131,1308.2519422863234,28555.435321297784,1308,-0.0006341863761844364,-0.0006598713233963556,1290.0362862125735
103,241.85715592499997,1321,27053,1308.636752814308,27756.315137375168,1300,-0.0008161044613710555,-0.0006902311589537244,1289.7523160207231
104,242.3917472,1320,26069,1309.4406894833153,26979.51675009575,1293,-0.0010909531698250435,-0.0007143028875449503,1290.0617228023036
105,242.92623312499998,1311,25235,1310.1787809463156,26244.31350653419,1291,-0.0008359806052499582,-0.0007256173513781502,1290.7058597023465
106,243.46061369999998,1299,24332,1310.449364651496,25572.617748985896,1305,0.00026049581035905006,-0.0007189068812631821,1291.4965684386714
107,243.994888925,1298,23611,1310.1429477451109,24972.012956125374,1305,0.0003137184600905302,-0.0007104742808355836,1291.7077170490593
108,244.52905879999997,1295,23156,1309.668984574937,24440.073704953214,1292,-0.00013723068478111705,-0.0007046970519508014,1291.5658112301276
109,245.063123325,1300,22747,1309.7363700196806,23988.53507440666,1295,-0.00023313283909171445,-0.0007073767219658248,1291.52279779834
110,245.59708249999997,1311,22197,1310.028992729142,23631.850143830667,1302,-0.00043091065785693766,-0.000706978248280537,1291.7318852068881
111,246.130936325,1315,21729,1310.1515776121519,23383.65344628373,1303,-0.0005878318800822965,-0.0006990203077922713,1291.9720718475821
112,246.66468479999997,1317,21519,1310.4473261002265,23254.15203062313,1298,-0.0009405009405009405,-0.0006906875064627744,1292.2988516160935
113,247.19832792499997,1310,21558,1310.9550612697658,23248.96477836373,1286,-0.001185302252074279,-0.0006916019679662648,1292.2752723730755
114,247.7318657,1311,21864,1310.9293755237695,23364.615891639227,1274,-0.0018002238116090108,-0.0006813597602339085,1292.0344062152917
115,248.265298125,1305,22051,1310.7767786359575,23592.55903870937,1277,-0.001349657765352357,-0.0006546239455755944,1292.371152234454
116,248.79862519999998,1299,22170,1311.1104215270764,23924.827855670115,1290,-0.00043122035360068997,-0.0006363954994455979,1292.8548778001518
117,249.33184692499998,1295,22579,1311.3582867108855,24352.443656707506,1300,0.00023491824844953956,-0.0006116515594742861,1293.4251964936668
118,249.8649633,1308,23184,1311.3554780402476,24889.580149040274,1306,-9.142439202779301e-05,-0.0005763114343084623,1294.1160615189226
119,250.397974325,1323,23871,1311.1011121429453,25544.732995084334,1302,-0.0009313464608834486,-0.0005545186826943824,1293.9384131010647
120,250.93087999999997,1321,24836,1310.6240684952975,26316.499716867373,1291,-0.0012757814161173718,-0.0005282651031019319,1293.7433237445673
121,251.46368032499998,1319,26109,1310.2506512038526,27193.225146661916,1300,-0.0007664380798709157,-0.0004904705167178071,1294.1748170966252
122,251.99637529999998,1315,27337,1309.8833948673557,28151.869759223908,1315,0.0,-0.00044041719565747695,1295.1633559083764
123,252.52896492499997,1313,28433,1309.721488595413,29186.903893632363,1312,-3.687315634218289e-05,-0.0003854216606369129,1296.750118915466
124,253.06144919999997,1311,29503,1309.6737638451355,30292.20437608948,1303,-0.00028376844494892167,-0.0003327337462767939,1298.5297515232257
125,253.593828125,1306,30778,1309.5337606740559,31466.223515820824,1307,3.393051031487514e-05,-0.00026410063212272664,1300.9573942784414
126,254.1261017,1304,32147,1309.720559922057,32699.457518855972,1307,9.726680284019065e-05,-0.00017069084574284016,1304.7866995854697
127,254.65826992499998,1306,33413,1310.0364674171306,33970.41627216859,1305,-3.1145856043853365e-05,-6.853005888759476e-05,1309.359056830254
128,255.19033279999996,1301,34844,1310.1655303630635,35268.16811252735,1307,0.00017887487702352204,3.516862958515109e-05,1314.0390722326415
129,255.722290325,1307,36607,1310.1986228453395,36586.67795419985,1320,0.00036827195467422095,0.0001430737117992404,1319.14299304625
130,256.2541425,1324,38183,1310.2285668984323,37920.7932455994,1328,0.00010852166363710356,0.00026172885439724444,1325.2920337946246
131,256.78588932499997,1321,39445,1310.4608937914538,39254.35443611331,1328,0.00018361137341307314,0.0003951509232495996,1332.4026818274222
132,257.3175308,1324,41019,1310.5072821581211,40567.6067861099,1340,0.0004030734349414284,0.0005794124624410992,1341.0777594056233
133,257.849066925,1321,42908,1310.2365172483835,41847.84146866213,1344,0.0005530574458364393,0.0007845671167549468,1350.3286371151976
134,258.3804977,1303,44684,1309.6117465854015,43096.69412670646,1341,0.0008759595214494825,0.000991323764808027,1359.6406713628587
135,258.91182312499996,1308,46088,1308.933294072321,44315.67281252037,1354,0.001027244305493524,0.0012213097489638654,1370.3012525764761
136,259.4430432,1315,47111,1308.5037260186843,45485.84939636144,1372,0.0012446501877893265,0.0014576117509120458,1381.8139935219106
137,259.974157925,1307,48038,1308.4156153026997,46604.94373598407,1378,0.001519334060901757,0.0016990452471061593,1394.309474733263
138,260.5051673,1294,48929,1308.860087431174,47673.60984393666,1401,0.0022462475070851263,0.0019418051392854731,1408.0789598858141
139,261.03607132499997,1303,49808,1309.3365874651497,48674.05218691156,1433,0.002680136068446552,0.002181907675046472,1422.133547758699
140,261.56687,1312,50555,1309.6336496862646,49606.10614056849,1437,0.002538431858335195,0.0024270472398807137,1437.010011551763
141,262.097563325,1300,51444,1309.446601281997,50467.56746472076,1435,0.002692246330567964,0.002717477566405251,1453.6426646129873
142,262.62815129999996,1302,52797,1308.810573285893,51244.29108246975,1454,0.002951742887658996,0.0030602400962421255,1471.8180932750176
143,263.158633925,1301,53677,1307.8703028380912,51942.1424494316,1470,0.00322666870322285,0.0034446620396324794,1491.3186255634046
144,263.6890112,1303,53968,1306.982989422159,52559.93635189824,1510,0.003930504129877528,0.0038468659696584188,1512.0696278511116
145,264.219283125,1312,54014,1306.4519468164376,53085.63025209983,1546,0.004440059200789344,0.004257420887323889,1534.122335726714
146,264.7494497,1304,54063,1306.0084033613193,53531.29681306382,1561,0.004871206808317065,0.004669915253760564,1556.7175247457174
147,265.27951092499995,1307,54577,1305.6414867833676,53916.98165303754,1585,0.005218697202928477,0.00511667491622644,1581.027497791539
148,265.8094668,1314,55076,1305.568053636524,54236.53720355963,1608,0.005468546557047729,0.005608530678695242,1607.4410518924242
149,266.33931732499997,1313,55349,1305.6349181181656,54470.41196855996,1636,0.005977496483825597,0.006115880425113901,1634.4853564066825
150,266.8690625,1305,55204,1305.718679924775,54610.32372194056,1657,0.0065307334087830946,0.006639622817685695,1661.9387302090329
151,267.398702325,1294,54794,1305.5629799089197,54673.82151351,1673,0.00708411214953271,0.007206461121120817,1690.7122471629837
152,267.9282368,1302,54643,1305.1159029649345,54678.47738340515,1707,0.007592658555332671,0.007806753437420673,1720.7731318942342
153,268.457665925,1312,54550,1304.8815828217832,54617.6819860009,1755,0.008321124009166386,0.00842351822749915,1751.7381820652454
