,x_(nm),baseline_dark,baseline_light,baseline_dark_smoothed,baseline_light_smoothed,raw_signal,calibrated_signal,calibrated_signal_smoothed,raw_signal_smoothed
0,186.23,1275,1285,1261.6415378923693,4413.4774593598195,1261,-1.4,,1251.1535109770389
1,186.775442325,1270,1280,1267.5631292865469,3334.059670957567,1257,-1.3,,1254.4608636810622
2,187.3207793,1281,1278,1273.1253878619657,2391.2479141890617,1260,7.0,,1257.827938774283
3,187.86601092499998,1280,1287,1278.3379669139058,1580.2087945805652,1259,-3.0,,1261.2473316047906
4,188.41113719999998,1269,1289,1283.210519737648,896.1089176583382,1256,-0.65,,1264.7116375206742
5,188.956158125,1275,1292,1287.7526996284723,334.11488894864306,1255,-1.1764705882352942,,1268.2134518700232
6,189.50107369999998,1286,1298,1291.9741598816593,-110.60668602225905,1266,-1.6666666666666667,,1271.7453700009266
7,190.045883925,1306,1304,1295.8845537924892,-442.88920172810776,1280,13.0,,1275.299987261474
8,190.59058879999998,1307,1306,1299.4935346562427,-667.5660526426391,1275,32.0,,1278.8698989997542
9,191.135188325,1298,1316,1302.8107557682,-789.4706332395945,1279,-1.0555555555555556,,1282.4477005638566
10,191.67968249999998,1309,1325,1305.8458704236411,-813.436337992709,1300,-0.5625,,1286.0259873018708
11,192.22407132499998,1314,1332,1308.608531917847,-744.2965613757251,1308,-0.3333333333333333,,1289.5973545618856
12,192.7683548,1304,1329,1311.1083935460977,-586.8846978623797,1288,-0.64,,1293.1543976919904
13,193.312532925,1287,1312,1313.3551086036737,-346.0341419264105,1279,-0.32,,1296.6897120402746
14,193.8566057,1291,1311,1315.3583303858552,-26.578288041558153,1296,0.25,,1300.195892954827
15,194.400573125,1302,1333,1317.127712187923,366.64946931844133,1312,0.3225806451612903,,1303.6655357837374
16,194.9444352,1312,1338,1318.672907305157,828.8157356798492,1315,0.11538461538461539,,1307.0912358750948
17,195.488191925,1321,1342,1320.003569032838,1355.087116568924,1316,-0.23809523809523808,,1310.4655885769882
18,196.0318433,1341,1341,1321.129350666246,1940.6302175119336,1324,-inf,,1313.781189237507
19,196.575389325,1339,1343,1322.0599055006614,2580.6116440351293,1314,-6.25,,1317.0306332047408
20,197.11883,1331,1336,1322.804886831365,3270.1980016647803,1306,-5.0,,1320.2065158267785
21,197.662165325,1332,1329,1323.3739479536368,4004.5558959271466,1313,6.333333333333333,,1323.3014324517094
22,198.2053953,1334,1331,1323.7767421627573,4778.851932348489,1328,2.0,,1326.3079784276226
23,198.74851992499998,1324,1324,1324.0229227540067,5588.252716455075,1330,inf,,1329.2187491026077
24,199.2915392,1327,1343,1324.1221430226658,6427.924853773149,1326,-0.0625,,1332.0263398247534
25,199.83445312499998,1351,1367,1324.0840562639896,7293.034949828849,1333,-1.125,,1334.7233459421248
26,200.3772617,1349,2463,1323.9124102470923,8050.5873292711785,1342,-0.0062836624775583485,,1337.0827198803793
27,200.919964925,1325,6981,1323.0382568121336,8822.568869056888,1342,0.003005657708628006,,1338.7161204104027
28,201.4625628,1315,12250,1322.3422048064258,9609.875603071234,1337,0.002011888431641518,,1340.1376248612396
29,202.005055325,1310,14414,1322.0086751681552,10411.867539468418,1335,0.0019078144078144078,,1341.8117284649452
30,202.5474425,1312,15365,1321.285510430562,11226.096944437937,1342,0.002134775492777343,,1343.433509252732
31,203.089724325,1315,16057,1320.145847018027,12049.82248748533,1356,0.0027811694478361145,,1344.5265124917635
32,203.63190079999998,1311,16738,1319.1999592289494,12881.334571564228,1365,0.003500356517793479,,1345.4987202427885
33,204.173971925,1315,17248,1319.3302906067836,13718.425332396844,1357,0.0026360384108454153,,1347.0689030328854
34,204.71593769999998,1325,17617,1319.6579084463722,14554.090556977228,1360,0.0021482936410508226,,1348.431017690069
35,205.257798125,1326,17846,1319.386056309291,15381.042311263833,1362,0.0021791767554479417,,1349.7235950983907
36,205.7995532,1321,18181,1319.4139618111142,16191.901379419383,1357,0.002135231316725979,,1351.6546467643402
37,206.34120292499998,1309,18744,1319.8590455049693,16988.49183446931,1363,0.003097218239174075,,1353.7899386169304
38,206.88274729999998,1304,19353,1319.712836077802,17770.19563296983,1364,0.0033242838938445343,inf,1354.9675417336489
39,207.424186325,1304,19677,1318.5863779473802,18527.919726380762,1347,0.0023403907908343766,inf,1355.52605948037
40,207.96552,1301,19907,1317.4068042311012,19259.957892590624,1345,0.00236482854993013,inf,1356.6534236335783
41,208.506748325,1306,20236,1316.3600761058888,19967.654420258288,1351,0.002377179080824089,inf,1357.9334073251682
42,209.0478713,1328,20639,1315.400462071596,20645.518290334603,1358,0.0015535187199005747,inf,1359.0708283313065
43,209.588888925,1335,21116,1314.7082380121608,21288.00187999687,1358,0.001162731914463374,,1359.7800403179879
44,210.12980119999997,1319,21470,1315.0067045685946,21893.152098574858,1351,0.0015880105205696988,-inf,1360.478198826674
45,210.670608125,1299,21849,1315.4717660648914,22446.505198305305,1346,0.0022871046228710463,-inf,1361.0238737003974
46,211.2113097,1289,22171,1315.7066524722845,22947.355500690403,1337,0.002298630399387032,-inf,1361.3656934471642
47,211.751905925,1295,22315,1315.7192914901561,23391.642075697753,1338,0.0020456707897240725,-inf,1361.8319327730833
48,212.29239679999998,1308,22568,1315.6803325103374,23768.689030328656,1353,0.0021166509877704608,-inf,1362.4919250718895
49,212.83278232499998,1317,22944,1315.646469908693,24083.920134090906,1359,0.0019420169232903315,0.027688664905031034,1363.1704228861092
50,213.37306249999997,1319,23365,1315.5030238510249,24340.398627375012,1358,0.0017690283951737277,0.03224980116727339,1363.5711794151362
51,213.91323732499998,1323,23885,1315.4282543205709,24529.601712382595,1362,0.0017285701622196613,0.002259114339431935,1363.478357380662
52,214.45330679999998,1338,24472,1315.8372330063848,24687.587397222567,1379,0.0017722832195037608,0.0020060798235163476,1363.466624385577
53,214.993270925,1341,24958,1315.1601168769141,24929.874900903284,1387,0.0019477495024770293,0.001996455250119164,1362.6470814740728
54,215.5331297,1325,25385,1313.8024190808148,25298.755169992044,1374,0.002036575228595179,0.0019663423448278237,1361.4917212167622
55,216.07288312499998,1321,25785,1313.2625427529251,25716.127907766386,1366,0.0018394375408763899,0.001934297366759614,1361.287934041515
56,216.61253119999998,1335,26168,1313.448345375861,26147.024870324985,1375,0.0016107598759714896,0.001894409389384815,1361.4232032435355
57,217.152073925,1336,26491,1314.1743640852314,26591.054451968954,1384,0.0019081693500298152,0.0018724358012586204,1362.3311739789992
58,217.69151129999997,1317,26754,1314.576411696729,27054.484880744232,1373,0.002201517474544954,0.0018797110701840073,1363.471313053497
59,218.230843325,1308,27117,1314.6485537611018,27537.028630319524,1369,0.00236351660273548,0.0018657443298135553,1363.968379804726
60,218.77006999999998,1315,27623,1314.90119821511,28032.929466125534,1368,0.0020145963205108713,0.0018406977335366232,1364.5251761081531
61,219.30919132499997,1312,28293,1315.6941946589702,28533.0563319662,1361,0.001816092806048701,0.0018062173879273345,1365.2371288137638
62,219.84820729999998,1299,28810,1316.4359555142557,29039.295703186377,1357,0.0021082476100468903,0.001764796992382049,1365.657795193523
63,220.38711792499998,1304,29218,1316.616593807309,29562.533624770098,1363,0.002113634735258293,0.0017589225251851963,1366.2473215701114
64,220.9259232,1314,29801,1316.6669460236672,30111.08034157001,1366,0.0018253940393863869,0.0017604516193756774,1366.7757140591823
65,221.464623125,1313,30348,1316.6213730775078,30675.272690207574,1354,0.0014120888582744963,0.0017450672789841822,1367.0643955695223
66,222.0032177,1314,30744,1316.167953974017,31242.92672540655,1357,0.0014610941216445803,0.0017441420912342879,1367.41822011821
67,222.54170692499997,1318,31166,1315.9637137873765,31813.0923463719,1359,0.0013736263736263737,0.0017459362393124776,1368.062198464265
68,223.0800908,1317,31634,1316.8453192597544,32386.222677749724,1370,0.0017481940825279545,0.0017127202464795007,1368.9317311830132
69,223.61836932499997,1304,32014,1317.776688033679,32958.802622935335,1376,0.002344513187886682,0.0016646523388804857,1369.5425037939442
70,224.1565425,1297,32762,1318.275793336177,33525.76683503526,1368,0.002256475448911489,0.0016265324907078498,1369.9060907381559
71,224.69461032499999,1296,33421,1318.1135473056893,34085.60248250179,1360,0.0019922178988326846,0.001598147028684338,1369.6524496590823
72,225.23257279999999,1304,34101,1317.4075516999,34632.04122403612,1354,0.00152452968259292,0.0015588217955228901,1368.465899567348
73,225.77042992499997,1309,35060,1316.7289406328318,35156.07492808376,1355,0.0013629225800717015,0.0015151520806758975,1367.220729801328
74,226.30818169999998,1299,35726,1316.082198917277,35653.421436498444,1350,0.0014813954163882999,0.0014891612049069646,1366.4964325352519
75,226.84582812499997,1305,36159,1315.2359056830026,36125.2938684901,1348,0.0012337177942273484,0.0014727631937389626,1365.8640965820027
76,227.3833692,1332,36720,1314.2562911956984,36566.769915512676,1366,0.0009607776647451113,0.0014657398335061605,1365.3487734716268
77,227.92080492499997,1323,37058,1313.6379532945002,36974.103467801506,1370,0.0013152371624457814,0.0014446410518437036,1364.7730865931017
78,228.45813529999998,1344,37240,1313.7006047701848,37343.697592243734,1399,0.0015322041453086695,0.0014125070885202423,1364.5511110104158
79,228.99536032499998,1366,37510,1314.0390269315021,37664.16999252459,1410,0.001217352810978309,0.0013804200295468479,1364.5528777548495
80,229.53248,1340,37920,1314.0501710117758,37927.47303449609,1377,0.001011481683980317,0.0013584509855955117,1364.4154793992807
81,230.069494325,1319,38525,1314.1294253550225,38135.54030668798,1370,0.0013707466537655217,0.0013348340659237027,1364.2569707127873
82,230.60640329999998,1302,38970,1315.099775759335,38280.319667488904,1355,0.0014070298396516938,0.0012936710460618402,1364.5213255113106
83,231.143206925,1306,39218,1315.8679245282765,38350.9642120992,1354,0.0012660898923823592,0.0012826584210613768,1365.1819973272065
84,231.67990519999998,1320,39279,1315.5809644612307,38344.52329611016,1367,0.001238178034194789,0.0013037761395591123,1365.4186278284635
85,232.216498125,1326,39321,1314.9315273278871,38266.40564905134,1368,0.0011054086063955783,0.001330893195345247,1365.3728963283165
86,232.75298569999998,1311,39440,1314.1946589956485,38119.09239167292,1365,0.0014162448529990296,0.0013615171453143433,1365.1862329837334
87,233.289367925,1308,39509,1313.5794468730637,37903.807175699745,1370,0.0016229941624564801,0.001392623941427113,1365.0113252848048
88,233.8256448,1314,39353,1312.8786608982964,37614.718838478075,1371,0.0014984621046820368,0.0014377093230088346,1365.0019252983952
89,234.36181632499998,1311,38854,1312.2200729348092,37246.859974177634,1376,0.0017313480542311482,0.0014987360357008141,1365.2623388977975
90,234.89788249999998,1311,38229,1311.9368728623274,36815.232938457695,1367,0.0015168752370117557,0.001556742978746425,1365.698045255812
91,235.433843325,1319,37724,1311.7666764818885,36324.90785748192,1359,0.0010987501716797144,0.001585395085848057,1365.463996919496
92,235.9696988,1313,37164,1311.7410133864616,35768.557113410716,1350,0.0010320493152213327,0.0016055578694311456,1365.0978731114824
93,236.505448925,1296,36483,1311.297447280774,35146.23311966228,1344,0.001364140165401995,0.0016339137515007194,1364.3415479399043
94,237.04109369999998,1301,35829,1310.6724501120952,34465.52698815309,1348,0.0013612140871177016,0.0016548417035801683,1363.230378944004
95,237.576633125,1299,35052,1309.9198849350812,33728.5213934624,1344,0.001333214825348858,0.0016952540160546034,1362.4815964121237
96,238.11206719999998,1297,34155,1308.9334979274477,32946.96437065329,1354,0.001734737354677704,0.0017691240676596144,1362.2151577611914
97,238.64739592499998,1298,33207,1308.1597771183694,32132.213209811613,1372,0.0023190949261963707,0.0018369567398598783,1361.9316632313044
98,239.1826193,1295,32151,1307.6361412489275,31298.7428707326,1371,0.0024630541871921183,0.001895124074685471,1361.5373168134915
99,239.71773732499997,1301,31107,1307.1325964347755,30468.354119005508,1365,0.002147218680802523,0.0019442418410129747,1360.8886271489466
100,240.25275,1315,29923,1306.340981675664,29641.307005820632,1366,0.0017827181208053692,0.0019900738214150906,1359.8747196991744
101,240.787657325,1323,28744,1305.9471562209537,28818.696233209714,1359,0.0013128624047263047,0.0020361522903948486,1359.2188498040464
102,241.3224593,1317,27616,1306.4970441006342,28019.377245237178,1363,0.001749115935967147,0.002074437235725879,1359.2567442070906
103,241.85715592499997,1312,26541,1306.7612176945997,27240.680513714404,1369,0.002259304768322169,0.00212574901725408,1359.4957983193015
104,242.3917472,1310,25647,1307.4000543613422,26483.047384991227,1374,0.002629740724000493,0.0021825147204925428,1360.3581055063273
105,242.92623312499998,1308,24889,1308.7137647511584,25762.101293347034,1370,0.002629235401382469,0.0022178509905725102,1361.2132098122008
106,243.46061369999998,1302,23958,1309.5393553647623,25101.056128111144,1364,0.0027365819209039547,0.0022513141856008415,1361.6366622120286
107,243.994888925,1285,23209,1309.676413961786,24508.527871525504,1359,0.0033752964787447546,0.002292887405207535,1361.8140841241895
108,244.52905879999997,1293,22740,1309.3071417245892,23984.038007655432,1356,0.0029374737725556023,0.002332911688149883,1361.5738974834958
109,245.063123325,1311,22309,1309.4476885093409,23535.005843846524,1361,0.0023811791599199924,0.0023549398285420578,1361.2825432059358
110,245.59708249999997,1315,21798,1309.8050465468955,23174.292917166422,1368,0.002587511594981204,0.0023763306897777925,1361.3910620851855
111,246.130936325,1327,21381,1310.322702665947,22918.719903055124,1374,0.0023436720853695025,0.002393971975788583,1361.7817617612823
112,246.66468479999997,1323,21190,1310.5129674511063,22778.224421843774,1368,0.0022650626667337797,0.0024098395701770956,1361.985730141087
113,247.19832792499997,1313,21196,1310.7245237717477,22759.82588507058,1357,0.002212945732535332,0.0024227199385769282,1362.3169720718213
114,247.7318657,1315,21434,1310.8403814355681,22860.027565742843,1351,0.0017893533475818878,0.0024289186018192285,1362.5577929284661
115,248.265298125,1312,21528,1310.9044825477108,23070.25789938573,1345,0.0016323703996834191,0.002440085085615585,1363.188339486712
116,248.79862519999998,1307,21605,1311.4843597816232,23382.181204556848,1352,0.0022169671888856044,0.0024398404660162555,1364.1010441912351
117,249.33184692499998,1302,21983,1312.454121271125,23788.430224919703,1356,0.0026110923069484065,0.0024149625119928406,1364.5740333869135
118,249.8649633,1321,22633,1312.687920451174,24301.019049128623,1370,0.002299174174174174,0.00239364960553709,1364.8469727513384
119,250.397974325,1330,23359,1312.4190128881487,24926.23805748667,1397,0.003041445367470153,0.0023739215368707442,1364.916079639377
120,250.93087999999997,1324,24229,1312.2932342748168,25666.28145597813,1399,0.0032743942370661427,0.0023481466656259118,1365.2027905501561
121,251.46368032499998,1325,25443,1312.1120070669529,26511.662098801276,1381,0.0023219172402355087,0.0023301420301275314,1366.2311717139423
122,251.99637529999998,1315,26610,1312.1289043919203,27439.35860381836,1376,0.0024115437833563944,0.0023155946860869,1367.687920451173
123,252.52896492499997,1312,27713,1312.1590976012797,28440.477745814766,1374,0.0023483958940949206,0.002312822995928625,1369.6118598382486
124,253.06144919999997,1315,28778,1312.0679517089604,29509.63745498142,1384,0.0025124713250555294,0.002319332736173961,1371.9542231986873
125,253.593828125,1313,29969,1312.3317402432422,30651.304423655667,1393,0.0027917364600781687,0.0023177081718836604,1374.6731296291837
126,254.1261017,1302,31287,1312.9240299893293,31853.15067158878,1379,0.0025679506419876603,0.0023157048778803995,1378.2593037214624
127,254.65826992499998,1295,32474,1313.817798817615,33092.38062017196,1373,0.0025016838256518813,0.0023035915847479946,1382.2272758159604
128,255.19033279999996,1295,33905,1314.3573580375296,34357.07907313803,1371,0.0023305734437289176,0.0023064553185059853,1386.550318240477
129,255.722290325,1305,35540,1314.687671294908,35645.1014745514,1384,0.002307579962027165,0.0023350885690356714,1391.855081655277
130,256.2541425,1312,37104,1315.2923962037391,36952.636435705645,1408,0.002682163611980331,0.002385958069318033,1398.4887766427057
131,256.78588932499997,1311,38368,1315.7983419782754,38260.521506715166,1402,0.0024556763904255608,0.0024561468414251767,1406.045278488727
132,257.3175308,1318,39905,1316.0057079435296,39548.0627420772,1412,0.00243605359317905,0.0025539960146389405,1414.5600579854313
133,257.849066925,1320,41718,1315.1550204987402,40804.98915037636,1419,0.0024506163671468885,0.002702629015010663,1423.8630999569368
134,258.3804977,1306,43479,1314.089945412102,42031.64898412115,1427,0.0028691342802266854,0.002862325719866705,1433.694353212956
135,258.91182312499996,1313,44929,1313.6725860155132,43228.13402341986,1436,0.00282006603081438,0.003017826537027832,1444.4364764773557
136,259.4430432,1317,46004,1313.4777684658518,44379.64359328552,1439,0.0027301004766486898,0.0031953989563301513,1456.3087952161718
137,259.974157925,1316,46985,1313.8850483589413,45484.91995288594,1455,0.0030436401059799863,0.0033912681796721116,1469.9899431470421
138,260.5051673,1313,47816,1314.7094837934924,46544.68667466897,1471,0.003397630260413307,0.0036002617872090766,1484.9993884345909
139,261.03607132499997,1324,48629,1315.2178305284126,47539.17130625744,1494,0.00359370045449741,0.0038212716124755475,1500.2517837323321
140,261.56687,1326,49410,1315.6620535006205,48465.59267480484,1508,0.0037850428416937028,0.0040543472076107956,1516.298262701278
141,262.097563325,1310,50322,1315.8295091621303,49322.09352420119,1512,0.004121439647433282,0.004305576586414945,1533.2093139142155
142,262.62815129999996,1305,51616,1315.8042990780966,50093.96760968442,1542,0.004710699449424579,0.004597540584932688,1551.347369136304
143,263.158633925,1326,52445,1315.5337380234862,50787.424879384744,1565,0.00467536532404781,0.004940909517587585,1571.3266212144936
144,263.6890112,1328,52819,1315.7472422931185,51405.94987428835,1593,0.005146530461634072,0.005304490904055396,1592.9571224715999
145,264.219283125,1329,52938,1316.646401956984,51934.321230377944,1620,0.005638551415450794,0.005715359417896241,1616.5306348954368
146,264.7494497,1330,53002,1317.145529910052,52381.85476454632,1622,0.0056510295711410434,0.006173284011117712,1641.4584022287845
147,265.27951092499995,1321,53477,1317.5747582051436,52770.04111078293,1650,0.006307999079684025,0.006636760777107146,1667.334956624127
148,265.8094668,1320,53968,1318.0221749076736,53091.87582957609,1692,0.007065795471812794,0.007133924717279323,1694.7250900359818
149,266.33931732499997,1319,54254,1318.1030147907966,53333.12697909249,1723,0.0076320015112874276,0.007672819856021471,1723.3097465400924
150,266.8690625,1310,54032,1318.3462139572557,53484.681850097506,1753,0.008402564394370472,0.008256024916306002,1753.30988244351
151,267.398702325,1311,53633,1318.6828693741395,53559.45344175304,1775,0.008868162532013302,0.008884815439261473,1784.86710910776
152,267.9282368,1309,53551,1319.0016308409902,53573.52680694817,1807,0.00953256000918801,0.009532078240977366,1817.2211601621434
153,268.457665925,1316,53494,1319.1946816462182,53520.794219573596,1855,0.010330024148108399,0.010210770446673635,1850.5914290244043
154,268.9869897,1319,53105,1319.217739926134,53405.017055877935,1889,0.011006835824354072,0.010915792671706843,1884.530385739165
155,269.516208125,1307,52536,1319.6308183650567,53237.698634169625,1913,0.011829237346034473,0.011634459229873852,1919.0331151328087
156,270.0453212,1306,52306,1320.2363586943957,53018.659267479554,1943,0.012490196078431373,0.012383276896688614,1954.3550703299816
