,x_(nm),baseline_dark,baseline_light,baseline_dark_smoothed,baseline_light_smoothed,raw_signal,calibrated_signal,calibrated_signal_smoothed,raw_signal_smoothed
0,186.23,1302,1308,1287.7735374749793,4439.485386607483,1304,0.3333333333333333,,1297.8043010140673
1,186.775442325,1296,1308,1293.486893005871,3357.7296792737493,1316,1.6666666666666667,,1300.0969786656797
2,187.3207793,1293,1314,1298.7645796973839,2412.8921117358473,1315,1.0476190476190477,,1302.4710198351227
3,187.86601092499998,1292,1307,1303.6225872448636,1600.130237058544,1302,0.6666666666666666,,1304.920551858866
4,188.41113719999998,1303,1306,1308.076905343656,914.6016083066065,1295,-2.6666666666666665,,1307.4397020733786
5,188.956158125,1311,1311,1312.1435236891075,351.46377854480215,1289,-inf,,1310.0225978151298
6,189.50107369999998,1316,1309,1315.838431976564,-94.12569916210123,1297,2.7142857142857144,,1312.6633664205883
7,190.045883925,1331,1317,1319.177619901371,-427.00927174933804,1308,1.6428571428571428,,1315.3561352262238
8,190.59058879999998,1331,1329,1322.177077158875,-652.0293861521386,1320,5.5,,1318.0950315685054
9,191.135188325,1322,1332,1324.8527934444216,-774.0284893057378,1327,0.5,,1320.8741827839021
10,191.67968249999998,1325,1333,1327.220758453357,-797.8490281453669,1333,1.0,,1323.687716208883
11,192.22407132499998,1326,1326,1329.296961881027,-728.3334496062598,1332,inf,,1326.5297591799176
12,192.7683548,1315,1326,1331.0973934227777,-570.3242006236487,1318,0.2727272727272727,,1329.394439033475
13,193.312532925,1307,1332,1332.638042773955,-328.66372813276575,1310,0.12,,1332.2758831060241
14,193.8566057,1321,1338,1333.934899629905,-8.194479068846704,1331,0.5882352941176471,,1335.1682187340346
15,194.400573125,1336,1355,1335.0039536859733,386.24109963288083,1347,0.5789473684210527,,1338.065573253975
16,194.9444352,1353,1371,1335.8611946375063,849.800561037182,1351,-0.1111111111111111,,1340.962074002315
17,195.488191925,1358,1378,1336.5226121798498,1377.6414582088223,1360,0.1,,1343.8518483155235
18,196.0318433,1347,1380,1337.0041960083497,1964.921344212571,1362,0.45454545454545453,,1346.7290235300698
19,196.575389325,1341,1362,1337.3219358183521,2606.797772113191,1359,0.8571428571428571,,1349.5877269824232
20,197.11883,1336,1357,1337.4918213052028,3298.428294975459,1353,0.8095238095238095,,1352.4220860090527
21,197.662165325,1348,1368,1337.5298421642478,4034.970465864132,1356,0.4,,1355.2262279464276
22,198.2053953,1351,1361,1337.4519880908333,4811.5818378439835,1358,0.7,,1357.9942801310167
23,198.74851992499998,1334,1358,1337.2742487803048,5623.419963979779,1351,0.7083333333333334,,1360.7203698992898
24,199.2915392,1329,1365,1337.0126139280087,6465.642397336287,1351,0.6111111111111112,,1363.3986245877156
25,199.83445312499998,1346,1375,1336.6830732292658,7333.4066909781395,1366,0.6896551724137931,inf,1366.023171532738
26,200.3772617,1348,2478,1337.1266619855235,8092.79005186965,1368,0.017699115044247787,inf,1368.473872567869
27,200.919964925,1323,7009,1337.3475276902957,8867.426396973713,1359,0.006331340133661625,inf,1371.1422002763106
28,201.4625628,1319,12319,1336.9281297424375,9659.048993181996,1370,0.004636363636363636,inf,1373.8639153774454
29,202.005055325,1321,14478,1336.7821241703973,10465.663050125511,1384,0.0047883256061412175,inf,1376.4454008018038
30,202.5474425,1329,15408,1336.8435751658897,11282.372533919011,1387,0.004119610767810214,inf,1378.5689370087396
31,203.089724325,1330,16134,1336.3616389951947,12106.830120727305,1380,0.0033774655498513915,-inf,1380.04912908557
32,203.63190079999998,1334,16831,1335.7004915173363,12940.657931096719,1382,0.0030973736852293993,-inf,1381.3725339192015
33,204.173971925,1336,17326,1336.3090670230101,13781.890914856243,1391,0.0034396497811131957,-inf,1383.1387120885825
34,204.71593769999998,1336,17673,1337.2828603139112,14620.173254207062,1397,0.0037338556650547837,-inf,1385.1408185915611
35,205.257798125,1338,17927,1337.344084803707,15448.421459149402,1391,0.003194888178913738,-inf,1386.8999524337773
36,205.7995532,1341,18285,1337.2587601077912,16261.86996307926,1387,0.0027148253068932956,-inf,1388.7785453803897
37,206.34120292499998,1344,18870,1337.3912659403127,17062.165281206493,1399,0.0031381946821864657,0.06516606487161783,1390.4453101995248
38,206.88274729999998,1335,19487,1337.3447416702277,17849.640739314254,1393,0.0031952401939180255,0.04685906130272873,1391.6497089401528
39,207.424186325,1330,19783,1336.8661577838427,18613.58495096116,1385,0.00298054516880724,0.023685530168487737,1392.2135269201754
40,207.96552,1329,19984,1336.6251104215014,19349.17008312722,1388,0.0031626909675690163,0.014920178999933911,1393.1078393621333
41,208.506748325,1333,20293,1336.8468594984906,20059.23726471682,1386,0.0027953586497890294,0.007909651349207285,1394.0369657296612
42,209.0478713,1339,20693,1337.5891413168786,20740.619266574155,1397,0.00299679652784954,-0.019320197692091298,1395.0357652494695
43,209.588888925,1338,21162,1338.3285918140587,21387.698090556565,1398,0.003026634382566586,-0.041572759820359274,1395.9992525311743
44,210.12980119999997,1335,21507,1339.1395728102307,21996.717207637354,1394,0.0029248463216339483,-0.052963980982473575,1397.1063670751053
45,210.670608125,1336,21905,1340.14831593012,22552.923373122398,1389,0.0025766930818221594,-0.049776908925001355,1398.4924913361301
46,211.2113097,1338,22263,1341.0713039932698,23055.691340686775,1392,0.0025806451612903226,-0.044094055945172066,1399.4901130263156
47,211.751905925,1341,22426,1342.2220208837994,23503.11166730798,1401,0.0028456248517903723,-0.04773236021541415,1400.326145552534
48,212.29239679999998,1350,22703,1343.5315182676588,23884.010917574113,1401,0.002388423172387955,-0.03997325869284872,1400.9879951980522
49,212.83278232499998,1355,23086,1344.4146639787732,24203.650614962502,1403,0.00220882610096176,-0.028374956589422504,1401.4110851887656
50,213.37306249999997,1356,23512,1344.953792837864,24463.52454189176,1405,0.00221159053980863,-0.016142421442919826,1401.8711182585973
51,213.91323732499998,1343,24032,1345.2903803030388,24656.6241817477,1408,0.002864824364229362,0.0019900571696219176,1402.038120908714
52,214.45330679999998,1340,24608,1345.4657863145,24818.221930281074,1412,0.0030943785456420837,0.0023001463052905865,1401.8014904074566
53,214.993270925,1354,25053,1344.4736460621727,25061.37710933382,1409,0.0023207730283978227,0.0023180785848157743,1400.529751523224
54,215.5331297,1338,25453,1343.2493601213814,25431.719903055076,1397,0.002446609993779805,0.0022905936569548903,1399.1328229404699
55,216.07288312499998,1335,25924,1343.1224716301358,25849.504382884734,1398,0.0025621212737402905,0.002270755276647215,1399.002038551243
56,216.61253119999998,1358,26383,1343.9170762644426,26280.53826813694,1405,0.0018781218781218781,0.0022391267453526907,1399.68071757002
57,217.152073925,1370,26660,1345.0385512695386,26726.999048675563,1410,0.0015816528272044287,0.0021904932149936834,1400.4798523182594
58,217.69151129999997,1343,26867,1345.9177104803928,27192.225622323884,1398,0.002154834665412945,0.002142683229870122,1401.242406396494
59,218.230843325,1329,27297,1346.872681147905,27676.47321570084,1394,0.0025030807147258163,0.002100903791260237,1402.0554032933658
60,218.77006999999998,1349,27857,1347.8226686900916,28173.651294479518,1403,0.002037120869171571,0.0020635518019394457,1402.752633128696
61,219.30919132499997,1357,28490,1348.2200955853784,28674.014994676567,1400,0.001584786053882726,0.0020195951470437005,1402.8874946204626
62,219.84820729999998,1351,28958,1348.4725814853985,29180.454483679707,1401,0.0018111348571014597,0.001975604381777815,1403.1418605177653
63,220.38711792499998,1344,29287,1348.9823552062078,29705.033386939114,1395,0.0018251440432308628,0.0019437915539827553,1403.844662393232
64,220.9259232,1346,29859,1349.156900496022,30255.337991799912,1398,0.0018237295268824746,0.0019085263209844055,1404.0227411719136
65,221.464623125,1348,30495,1349.5038166209622,30819.996172053136,1398,0.001715442412598209,0.0018535692633172979,1403.7124736686862
66,222.0032177,1346,30929,1349.6379079933602,31389.490883145107,1407,0.002061995064733124,0.0018003374752485423,1403.099594554776
67,222.54170692499997,1347,31327,1349.6621894040375,31960.163559762917,1405,0.0019346230820547032,0.0017371642624672947,1402.1602527803302
68,223.0800908,1357,31760,1349.703232236265,32532.099685156456,1413,0.0018419234943920007,0.0016966424525164275,1401.916759156466
69,223.61836932499997,1348,32165,1349.416340120928,33105.08210831439,1409,0.0019794269396761527,0.0016807339757790632,1402.151645563859
70,224.1565425,1336,32926,1348.8776642732305,33672.36424381009,1393,0.0018043684710351377,0.0016813655077443377,1402.6787696210292
71,224.69461032499999,1332,33619,1348.0820856644289,34231.597929737276,1394,0.001920277511072568,0.0016806686409620727,1402.9777344899953
72,225.23257279999999,1335,34278,1347.4837482162418,34777.83560216473,1396,0.0018516832103937103,0.0016680478633995543,1403.0274524904032
73,225.77042992499997,1333,35200,1347.223787628233,35303.00095132325,1398,0.0019192724481058257,0.0016529089342408939,1403.1855761172121
74,226.30818169999998,1329,35840,1347.1326417359137,35802.02715803234,1392,0.0018255049114775,0.0016244738248670195,1403.1766517927658
75,226.84582812499997,1332,36281,1347.1953158621682,36275.78148995378,1381,0.0014020429769092105,0.001584005289934477,1402.9869306212784
76,227.3833692,1356,36789,1347.1770595030205,36720.701035130325,1398,0.0011853357040047413,0.0015453733800092993,1402.7573670977558
77,227.92080492499997,1369,37114,1346.497451810887,37131.01508527868,1410,0.001147013568331235,0.0015456501622732807,1402.8029173933455
78,228.45813529999998,1390,37381,1345.8619447778854,37501.965140772576,1435,0.001250312578144536,0.0015707768142959344,1403.473600761032
79,228.99536032499998,1400,37665,1345.7482615687525,37823.00115517833,1453,0.001461464221701365,0.0015671484667297581,1403.9218781852092
80,229.53248,1368,38106,1345.0322997123121,38085.74343699671,1428,0.0016331863465621427,0.0015662253677148335,1403.7670388910012
81,230.069494325,1343,38698,1344.1451221997975,38294.88876305166,1404,0.0016329808593227146,0.0015853639451822667,1403.8669732043493
82,230.60640329999998,1328,39092,1344.2091100590922,38443.28578223668,1389,0.0016152949899375067,0.0015856840281072472,1404.3785589707313
83,231.143206925,1335,39373,1344.7087363246928,38515.83061903933,1386,0.0013407644986592356,0.001582671049143161,1405.1040114158602
84,231.67990519999998,1330,39419,1344.2922149991816,38507.94348682796,1388,0.0015227493502060962,0.0016104269015505843,1405.511449862937
85,232.216498125,1325,39443,1343.4150263878878,38429.491517360926,1395,0.001836402749357259,0.0016346383060078136,1405.3526693696076
86,232.75298569999998,1342,39615,1342.824616639083,38284.29887426596,1407,0.001698325190081781,0.0016503524189320801,1405.1555414618408
87,233.289367925,1349,39713,1342.6467190649587,38070.93089311124,1397,0.0012511729746637473,0.0016666668217634735,1405.1799361253666
88,233.8256448,1343,39551,1342.6141022446457,37781.60388683703,1391,0.001256281407035176,0.001694838751116178,1405.4878932704887
89,234.36181632499998,1344,39059,1342.4466465831358,37409.71048041787,1401,0.0015113350125944584,0.001731990300263724,1405.6768669731773
90,234.89788249999998,1329,38464,1342.2698362363556,36971.802079321584,1408,0.002127373098155379,0.0017673149314333997,1405.6908650252283
91,235.433843325,1329,37887,1342.1261636729905,36476.68880382272,1421,0.0025165490453525905,0.0017975475333402604,1405.4923327821425
92,235.9696988,1331,37345,1342.083195542342,35917.76835262338,1432,0.0028044649303048813,0.0018261660353173824,1405.3069831705996
93,236.505448925,1332,36715,1341.7871978980015,35292.235294116974,1422,0.002543594381482633,0.0018720990373956982,1405.0264105641988
94,237.04109369999998,1339,35991,1341.154884595322,34606.84085709689,1408,0.001991227057601293,0.0019522078869291333,1404.9686063104216
95,237.576633125,1342,35188,1340.1626084395766,33866.54646764302,1392,0.0014772794421792827,0.0020495617764707858,1404.8286484404812
96,238.11206719999998,1350,34322,1339.0784615732828,33083.53738476459,1390,0.001213150551983501,0.002142393786656129,1404.309497383832
97,238.64739592499998,1344,33386,1337.9746993136619,32267.62635620224,1397,0.001654079021284564,0.0022532022792675368,1404.122516931274
98,239.1826193,1333,32296,1336.8745611451873,31432.426736731824,1400,0.0021638730097212804,0.0023907255380081643,1404.5610772610662
99,239.71773732499997,1334,31250,1335.7271512378281,30598.845002151218,1405,0.002373311940098944,0.0025236264356870396,1404.8466556433625
100,240.25275,1333,30061,1334.7718861129101,29765.217037757928,1414,0.002819548872180451,0.0026273034828316927,1404.462479331328
101,240.787657325,1337,28824,1334.2743890008576,28935.31912387541,1420,0.00301960926983665,0.0027101657944650606,1403.8046614872098
102,241.3224593,1347,27697,1334.3042198011026,28125.804593534987,1417,0.0026565464895635673,0.0027900332905302174,1403.5365466941225
103,241.85715592499997,1342,26654,1334.7745815306998,27339.205961629414,1402,0.002370417193426043,0.002864194224512461,1403.5084146866022
104,242.3917472,1338,25729,1336.0777820561934,26577.313189426204,1408,0.0028699110327579844,0.0029366232328154637,1404.232757253818
105,242.92623312499998,1342,24954,1337.4177218056775,25853.874311988453,1418,0.0032187023547348807,0.003019531641508969,1405.3954336451293
106,243.46061369999998,1343,24012,1337.9284695009824,25191.0855738517,1411,0.0029996912082579734,0.003107967820459871,1406.047475593984
107,243.994888925,1333,23238,1337.9851865274154,24596.9567147609,1404,0.0032412691166400364,0.0031933248832618382,1406.2330064100843
108,244.52905879999997,1332,22768,1337.6064463521,24069.90985073229,1402,0.0032655346146669155,0.0032804916257858077,1406.1327096876216
109,245.063123325,1337,22376,1337.3629300776659,23620.853949126373,1400,0.0029944388991872237,0.003363481999993972,1406.1591202518473
110,245.59708249999997,1336,21883,1337.1826768442972,23260.18276744616,1414,0.0037961746240327055,0.003453264057640283,1406.7419873609554
111,246.130936325,1345,21437,1336.8833722167856,23004.839769869774,1426,0.004031455305594267,0.003548046531616363,1407.704772475001
112,246.66468479999997,1341,21213,1336.8854787197643,22867.693424539186,1418,0.0038747987117552334,0.0036344053300608145,1409.0023330086483
113,247.19832792499997,1331,21231,1337.0203855126697,22851.517542865768,1410,0.003969849246231155,0.003705323885019627,1410.2377403791434
114,247.7318657,1327,21499,1337.0925728781822,22951.852386237075,1407,0.00396589331746976,0.0037671181885166947,1411.408299168697
115,248.265298125,1327,21637,1337.1777616706804,23163.864526942416,1415,0.004332840965041851,0.003830744052117314,1413.0641237626853
116,248.79862519999998,1326,21746,1337.1489501460703,23480.292894515846,1423,0.00475024485798237,0.003914739459978535,1415.7784547781105
117,249.33184692499998,1318,22093,1337.0174182880444,23890.134725587894,1435,0.0056317689530685925,0.00401806662673769,1419.4211420416952
118,249.8649633,1325,22746,1336.608937914763,24408.153299055004,1442,0.005461929881891601,0.004142293114637183,1424.0996625064847
119,250.397974325,1348,23489,1336.2200955853782,25039.994065550265,1450,0.004606837992863918,0.004265072820074819,1429.3547305714465
120,250.93087999999997,1356,24337,1335.805182450313,25784.468300527264,1458,0.004438449153648666,0.004377364278891057,1434.9611542730026
121,251.46368032499998,1350,25499,1335.4270538403784,26635.341434686576,1463,0.004679282786036689,0.004473083721410271,1440.7640037146657
122,251.99637529999998,1347,26690,1335.5803075947106,27568.35613490627,1459,0.0044193662944402795,0.0045555730006957,1447.0884051733624
123,252.52896492499997,1350,27796,1335.632970169174,28573.99707807597,1444,0.003554412765635635,0.004653733551869417,1454.376837527436
124,253.06144919999997,1350,28875,1335.3894538947397,29647.967858841086,1455,0.0038147138964577656,0.0047768186919332056,1462.9473374255083
125,253.593828125,1338,30161,1335.3070058211708,30793.532220434758,1478,0.004857232071609478,0.004922496378443959,1473.5091395048303
126,254.1261017,1321,31529,1335.5907042061854,31999.59217649263,1483,0.005362817796610169,0.005095399455127831,1486.3744818681907
127,254.65826992499998,1324,32786,1335.828353983077,33243.18455684097,1495,0.00543512809103045,0.005294065890248193,1500.9407914108751
128,255.19033279999996,1323,34142,1336.0398423520096,34512.33221590457,1512,0.005758859197416131,0.005501351504972473,1516.6788828738756
129,255.722290325,1320,35750,1336.0448028267656,35804.30650750798,1531,0.006128376415916352,0.005716278508468693,1533.554100885608
130,256.2541425,1338,37283,1336.0525946227292,37114.944687308176,1562,0.0062317429406037,0.005958858904572193,1552.3330992774167
131,256.78588932499997,1344,38571,1336.2783528505486,38428.055607147784,1586,0.006500658124479544,0.006235937724644359,1573.3521257559328
132,257.3175308,1339,40113,1336.3090443724402,39720.53740741504,1608,0.006937638623820085,0.0065542732568826725,1596.7420100115212
133,257.849066925,1339,41924,1335.948922965387,40980.93324877042,1632,0.007219416040409018,0.006921555792830787,1622.1076128564325
134,258.3804977,1341,43642,1335.6139663412278,42211.557679674836,1655,0.007422992364246708,0.007319465018369331,1649.2222473894903
135,258.91182312499996,1333,45081,1335.4806450881983,43412.89848014595,1670,0.007703209289567523,0.007748373799958653,1678.891073410464
136,259.4430432,1329,46131,1335.1063444245367,44569.054066908924,1699,0.008258559885719387,0.008244317349804211,1711.377924754775
137,259.974157925,1334,47054,1335.200774649457,45675.21429703869,1741,0.00890201224846894,0.008793936495545787,1747.3021585992556
138,260.5051673,1338,47957,1335.7139912568543,46732.36578404856,1780,0.009481112850983504,0.009396253009727797,1787.1561303766446
139,261.03607132499997,1336,48858,1335.6903667126971,47725.32650796076,1827,0.010332056731619039,0.010057130746705832,1829.384266914278
140,261.56687,1338,49620,1335.169675417311,48651.48295544539,1878,0.011184292282838324,0.010784094948070382,1874.295997644305
141,262.097563325,1326,50498,1334.586559151937,49505.176606490706,1913,0.011937688115187505,0.011595417763911462,1923.1019502140107
142,262.62815129999996,1326,51770,1333.912342295383,50272.8459308242,1965,0.012667512489096821,0.01249163406428093,1975.283743686116
143,263.158633925,1335,52563,1332.9709166685286,50962.710888127855,2020,0.013371593659717343,0.01348315652397123,2031.2325080975397
144,263.6890112,1334,52962,1332.1657795193294,51578.92715576698,2076,0.014372046176493375,0.014550949127462458,2091.2807085097793
145,264.219283125,1342,53103,1332.2665745543247,52105.77874923454,2140,0.015417012808871543,0.015678778296997296,2154.7798364628457
146,264.7494497,1346,53110,1332.5053568596995,52550.74157964972,2212,0.016729773587821652,0.016881907452590956,2221.783687059687
147,265.27951092499995,1339,53626,1332.1679086728777,52934.39475412704,2294,0.018264578193432402,0.018203368174834103,2294.4466465831174
148,265.8094668,1339,54174,1332.0918027588136,53252.46014632165,2380,0.019702848490583895,0.019617841844871198,2372.2691114181066
149,266.33931732499997,1339,54435,1332.4994450610177,53488.794876440115,2461,0.021131535332228415,0.02108167022626172,2452.5164103376733
150,266.8690625,1334,54259,1333.1551111010185,53634.45384946329,2527,0.022541332073689184,0.022646114198488235,2535.6357788397895
151,267.398702325,1318,53865,1333.618179347185,53706.05610546002,2592,0.024244961653376976,0.024336384491912867,2622.799882216988
152,267.9282368,1320,53729,1333.44974971118,53719.61437405048,2682,0.025987902841115077,0.026153576041654376,2715.132166073925
153,268.457665925,1330,53667,1333.6142834492032,53667.80688124204,2791,0.027915241607275924,0.028092673024254524,2812.6596751907773
154,268.9869897,1333,53331,1333.6114068268562,53548.75614396599,2898,0.030097311435055195,0.030155465977434844,2913.874244037182
