,x_(nm),baseline_dark,baseline_light,baseline_mirror,baseline_calibration,baseline_dark_smoothed,baseline_light_smoothed,raw_signal,calibrated_signal,calibrated_signal_smoothed,raw_signal_smoothed
0,186.23,1086,1095,0.3621226043733797,0.04023584493037552,1076.6878175879272,3785.7999816601573,1080,-0.24141506958225312,,1316.5631065198218
1,186.775442325,1087,1080,1.18800459154587,-0.16971494164940998,1082.8046298667819,2856.9359805977074,1080,1.18800459154587,,1237.386874982214
2,187.3207793,1097,1073,1.908567993433533,-0.07952366639306387,1088.5816868918173,2044.436801845411,1082,1.192854995895958,,1168.555747872444
3,187.86601092499998,1094,1068,1.7279185264672412,-0.06645840486412466,1094.0281898987612,1344.3249279069928,1085,0.598125643777122,,1109.7051280599328
4,188.41113719999998,1088,1067,1.043047789334166,-0.049668942349246,1099.1533401233407,752.6228412861792,1086,0.099337884698492,,1060.4704184141005
5,188.956158125,1082,1075,0.840365554154959,-0.12005222202213699,1103.9663388012832,265.3530244866952,1088,-0.7203133321328219,,1020.487021804368
6,189.50107369999998,1089,1079,0.8202728553565946,-0.08202728553565945,1108.476387168316,-121.46203998773308,1086,0.24608185660697834,,989.3903411001561
7,190.045883925,1117,1092,0.837733819880384,-0.03350935279521536,1112.6926864601662,-411.79986963338024,1095,0.7372057614947378,,966.815779170885
8,190.59058879999998,1131,1105,0.8116271105193998,-0.031216427327669223,1116.6244379125615,-609.6379819465214,1103,0.8740599651747383,,952.3987388859757
9,191.135188325,1134,1106,0.8262856362484797,-0.02951020129458856,1120.280842761229,-718.9538944234305,1114,0.5902040258917712,,945.7746231148486
10,191.67968249999998,1138,1118,0.8012221689422371,-0.04006110844711185,1123.671102241896,-743.7251245603834,1131,0.28042775912978296,,946.5788347269246
11,192.22407132499998,1124,1116,0.7775424502505143,-0.09719280628131428,1126.8044175902899,-687.9291898536517,1126,-0.19438561256262857,,954.4467765916239
12,192.7683548,1119,1107,0.7753865851703869,-0.06461554876419891,1129.6899900421379,-555.5436077995105,1109,0.646155487641989,,969.0138515783675
13,193.312532925,1123,1105,0.7956261498651602,-0.04420145277028668,1132.3370208331673,-350.54589589423585,1101,0.9724319609463069,,989.9154625565759
14,193.8566057,1131,1115,0.7908861747409445,-0.04943038592130903,1134.7547111991057,-76.91357163410203,1113,0.8897469465835626,,1016.7870123956698
15,194.400573125,1141,1124,0.7942231778648126,-0.04671901046263603,1136.9522623756802,261.37584748461904,1137,0.18687604185054413,,1049.2639039650694
16,194.9444352,1134,1133,0.7947581770897779,-0.7947581770897779,1138.938875598618,660.3448439656499,1142,-6.358065416718223,,1086.9815401341962
17,195.488191925,1135,1135,0.7914877943554887,inf,1140.7237521036468,1116.015900312716,1145,inf,,1129.5753237724698
18,196.0318433,1149,1133,0.7911116722494277,-0.04944447951558923,1142.3160931264936,1624.4114990295448,1146,0.1483334385467677,,1176.6806577493119
19,196.575389325,1153,1132,0.7900325230816138,-0.0376205963372197,1143.7250999028859,2181.554122619864,1145,0.3009647706977576,,1227.9329449341421
20,197.11883,1140,1133,0.798472358442206,-0.114067479777458,1144.9599736685507,2783.4662535873945,1144,-0.456269919109832,,1282.967588196382
21,197.662165325,1138,1139,0.7981102791346143,0.7981102791346143,1146.0299156592157,3426.1703744358647,1144,4.788661674807686,,1341.4199904054512
22,198.2053953,1145,1138,0.8040599544843242,-0.1148657077834749,1146.944127110608,4105.688967668995,1124,2.4121798634529728,,1402.9255544307712
23,198.74851992499998,1137,1132,0.8074165803696804,-0.1614833160739361,1147.711809258455,4818.0445157905215,1109,4.52153285007021,,1467.119683141762
24,199.2915392,1149,1135,0.8060625325032217,-0.05757589517880155,1148.3421633384842,5559.2595013041555,1113,2.0727322264368557,,1533.6377794078446
25,199.83445312499998,1175,1149,0.8122546130835153,-0.031240562041673667,1148.844390586401,6325.3564067135085,1145,0.93721686125021,inf,1602.1152460984085
26,200.3772617,1172,2115,0.8144257223941842,0.0008636540004180108,1149.3183764071446,7007.61591429011,1241,0.05959212602884275,inf,1662.4646764365805
27,200.919964925,1152,6078,0.8150182986479615,0.00016545235457733688,1149.47072413869,7705.634306552663,1586,0.0718063218865642,inf,1723.6893021359156
28,201.4625628,1141,10631,0.8232603193402961,8.67502970853842e-05,1149.4303608235527,8419.593286370991,1964,0.0713954945012712,inf,1786.299848241149
29,202.005055325,1139,12572,0.8194894939197722,7.167755566515983e-05,1149.5306122448758,9149.270832861272,2140,0.07174923322082498,inf,1850.4975877142956
30,202.5474425,1148,13419,0.8269202298982968,6.73881696600356e-05,1149.4179256608084,9891.868989104885,2225,0.07257705872385833,inf,1915.3162699041513
31,203.089724325,1153,14041,0.8298864771900701,6.439218476024752e-05,1148.8264513352292,10646.374889578268,2282,0.07269877659431945,inf,1980.2594849260079
32,203.63190079999998,1156,14671,0.8293789756785952,6.136729379789828e-05,1148.4830686991559,11414.721579197498,2341,0.07272024315050946,inf,2045.6643638587118
33,204.173971925,1149,15153,0.8303112569560028,5.9291006637817966e-05,1149.138304378333,12195.037509343128,2387,0.07340226621761864,inf,2112.030985979257
34,204.71593769999998,1152,15506,0.832804584655424,5.8018990152948584e-05,1150.1166051325972,12978.503273007067,2425,0.07385817446470355,inf,2178.2892930756793
35,205.257798125,1157,15791,0.8371769300637781,5.720766229764782e-05,1150.8530431040122,13758.841717818941,2452,0.07408392267545393,inf,2244.1687693945073
36,205.7995532,1146,16205,0.8381556767340916,5.565812316449244e-05,1151.6180207932007,14530.979342680188,2479,0.07419227817826843,inf,2309.753289995199
37,206.34120292499998,1148,16810,0.840625124319978,5.367291050440416e-05,1151.8993861695403,15295.87773222467,2521,0.07369290612254692,-inf,2374.5557996783164
38,206.88274729999998,1147,17418,0.8415937915656597,5.172354443891953e-05,1151.6491200253465,16051.981902194533,2563,0.07324053892551005,-inf,2437.957779338103
39,207.424186325,1129,17748,0.8431564976534377,5.07344905020421e-05,1151.1071371944784,16789.570341343762,2573,0.0732606042849488,-inf,2499.3809372805244
40,207.96552,1125,18036,0.844165982526256,4.991815874438271e-05,1150.7601984189685,17507.8792498128,2593,0.07327985703675381,-inf,2559.290652109851
41,208.506748325,1136,18394,0.8476484869242688,4.91162641629545e-05,1150.7525651769922,18208.713470293427,2631,0.07342881492361698,-inf,2617.862329837545
42,209.0478713,1161,18812,0.8491768105118729,4.810927485762126e-05,1150.3496794944174,18887.66692337276,2690,0.0735590812573029,-inf,2674.215973181674
43,209.588888925,1163,19343,0.8502736512177026,4.6769727789752616e-05,1149.8660671815676,19540.462116921866,2725,0.07305431480759358,0.018185826352691586,2728.130942943162
44,210.12980119999997,1149,19770,0.8513731200582484,4.57211277621099e-05,1149.8606989965576,20164.669709392805,2739,0.07269659314175474,-0.04675195929765155,2779.4412783980993
45,210.670608125,1139,20235,0.8534308197221572,4.4691601367938685e-05,1150.1442841287237,20747.38243221777,2773,0.07302607663521181,-0.10949019508111071,2827.135382454814
46,211.2113097,1142,20660,0.8557212941711507,4.3842673131014996e-05,1149.9352646718844,21283.5412806628,2795,0.07247193868556778,-0.19858756368563157,2870.622437654252
47,211.751905925,1146,20863,0.8575135521308375,4.3491076336706264e-05,1149.331355183561,21772.438243221397,2810,0.07236915102427922,-0.12401040687343472,2908.8792724636464
48,212.29239679999998,1151,21186,0.8580327959771828,4.2826693085958715e-05,1148.893564973137,22205.136786789764,2842,0.07241993800835618,-0.10141207478694436,2941.418265419319
49,212.83278232499998,1148,21655,0.8587529108532552,4.187608674370972e-05,1148.1672971075,22585.2772656228,2868,0.07202686919918072,0.001423015533062232,2969.0512808896574
50,213.37306249999997,1149,22094,0.8598387128136875,4.105221832483588e-05,1148.0107816711368,22914.23076400327,2901,0.07192348650511246,0.04991635463434875,2991.5925842034358
51,213.91323732499998,1155,22605,0.8611437003932625,4.0146559458893354e-05,1148.0588461799593,23184.249813132352,2953,0.07218351390709025,0.07296084740419692,3009.0902172189053
52,214.45330679999998,1161,23226,0.8624756676121401,3.9087952305104925e-05,1147.746358920905,23428.483544360693,3009,0.0722345358598339,0.07255702974299441,3024.4000543613092
53,214.993270925,1174,23793,0.8630074298534857,3.8154093012665706e-05,1146.5426396973664,23746.46644318059,3044,0.07134815393368488,0.07246006571146398,3045.1750889034274
54,215.5331297,1163,24299,0.8629495266956824,3.729899406533897e-05,1144.50490384831,24170.76235022264,3064,0.07090538771820938,0.072342332114704,3074.127228249732
55,216.07288312499998,1158,24826,0.8648478670709356,3.6540808985589644e-05,1143.2454415728337,24636.34798070124,3106,0.07118149590392862,0.07221424783939437,3107.179686969068
56,216.61253119999998,1160,25314,0.8650803831098881,3.5815201751672106e-05,1143.0277469478137,25109.744275068035,3160,0.07163040350334421,0.0720928005155373,3141.510747695244
57,217.152073925,1149,25626,0.8652291434094919,3.5348659697246064e-05,1143.5287548981637,25589.83487734668,3191,0.07218196310177646,0.07196143673824042,3176.662053500584
58,217.69151129999997,1134,25879,0.8680312398394996,3.5079055964417034e-05,1144.0696958028275,26081.29128632535,3205,0.07264872490230767,0.07181399947827066,3212.3935762983824
59,218.230843325,1130,26310,0.868212549145114,3.4480244207510484e-05,1144.1900609300105,26585.385308840006,3245,0.07292571649888467,0.07169274580016595,3249.488029173872
60,218.77006999999998,1136,26844,0.868144571802742,3.376943254250591e-05,1144.3978346055187,27099.602731658182,3291,0.07277312712910024,0.07157862739521995,3287.401821105738
61,219.30919132499997,1135,27479,0.8681762475955156,3.29553692527906e-05,1144.6136492332564,27615.16974336852,3335,0.07250181235613933,0.07146499924673001,3325.0638519558124
62,219.84820729999998,1132,27977,0.868951283960652,3.236920409613157e-05,1144.487281705113,28134.056852929312,3365,0.0722804327466618,0.07135607007367874,3362.702122358313
63,220.38711792499998,1138,28404,0.8691522224557424,3.187677776189182e-05,1144.6234342793502,28666.2396203759,3390,0.07178650351978039,0.07121451985689675,3400.463679811482
64,220.9259232,1146,29063,0.8692686507714266,3.113760972781554e-05,1144.8938367799733,29215.487712065395,3430,0.0711183006183307,0.07104358458943569,3438.758952637593
65,221.464623125,1143,29670,0.8701622824311823,3.0503112224600634e-05,1144.4076876033214,29774.24723096729,3464,0.07079772347329807,0.07086188675353233,3476.5090715530832
66,222.0032177,1138,30099,0.86932404321908,3.001705891437036e-05,1143.4260345647472,30334.40863892669,3496,0.0707802249200853,0.07067756939618997,3513.6998120002045
67,222.54170692499997,1141,30542,0.8705973257298546,2.9611146754527213e-05,1142.5302724863311,30891.972615460687,3530,0.07074102959656552,0.07051156194985302,3551.292668010532
68,223.0800908,1141,30985,0.8704844215444587,2.9167820049070455e-05,1142.3935536478523,31450.95080296209,3558,0.07049862105860329,0.07034867343019123,3589.620716210944
69,223.61836932499997,1136,31357,0.8703398065724872,2.8799172978143914e-05,1142.627534032459,32011.234161588553,3576,0.07026998206667115,0.07016442919508031,3627.702031756029
70,224.1565425,1128,32038,0.8697053263836744,2.8136697715421364e-05,1142.4147319304861,32570.03959319514,3613,0.0699196938228221,0.06997158651831155,3665.013816847424
71,224.69461032499999,1128,32796,0.8700422735223692,2.7473862369659253e-05,1141.4945978391138,33126.90346327146,3659,0.06953634565760757,0.06978308456704299,3701.3887970281735
72,225.23257279999999,1135,33482,0.8700397124616915,2.6897075848198954e-05,1140.6247933135298,33677.96767763644,3733,0.06987860305362088,0.06956803669947327,3736.3111055742334
73,225.77042992499997,1133,34370,0.8700678242154535,2.6177688245493078e-05,1140.10034202358,34216.31420870169,3795,0.06968500610950257,0.06934442572931053,3770.068880382269
74,226.30818169999998,1131,35025,0.8699872642519537,2.5667884116715456e-05,1140.0395931957469,34743.591338421495,3819,0.06899527250573115,0.0691224426856414,3803.3734172913723
75,226.84582812499997,1119,35492,0.8700242014773532,2.5311267607638356e-05,1139.7495979523667,35268.87691680378,3852,0.06917569437167563,0.06888483140612982,3835.782554531173
76,227.3833692,1138,36073,0.8696880407569096,2.489446230877085e-05,1139.0719835103632,35785.85945321456,3902,0.06880829382144263,0.06864452464590491,3867.0122086569736
77,227.92080492499997,1153,36400,0.87010037851645,2.4685799600432658e-05,1138.6037735848838,36287.777435501805,3917,0.06823155009559587,0.06842295023782613,3897.85632743656
78,228.45813529999998,1170,36626,0.8693067287349536,2.4517901870909116e-05,1138.495118802216,36778.441640806566,3949,0.06813524929925643,0.06821011136598103,3928.355568642476
79,228.99536032499998,1195,36996,0.8691277262341458,2.427663267043227e-05,1139.181906724932,37251.10641237556,3981,0.06763469861982431,0.0679761568950364,3957.6700718022303
80,229.53248,1173,37472,0.86926662631248,2.394739872482658e-05,1139.9139731364025,37695.20924596181,3992,0.06750771700528613,0.06773271941936722,3984.6645224126623
81,230.069494325,1149,38186,0.8686441253792921,2.3453414838655727e-05,1140.4550499444842,38120.19083104867,4023,0.06740511424629655,0.06749050178087261,4009.9324333506215
82,230.60640329999998,1129,38796,0.868302707705708,2.3052080274662384e-05,1141.2896781353834,38520.76407166567,4047,0.06726597024146484,0.06726721874467818,4034.0889034858446
83,231.143206925,1129,39297,0.8687016218294412,2.2759946076017637e-05,1141.9727060635355,38877.46757570878,4085,0.06727840060070814,0.06707474410966952,4055.6357788397604
84,231.67990519999998,1135,39606,0.8683284847277679,2.2570988139839564e-05,1141.6889170762427,39189.08903938859,4084,0.06656184402438688,0.06692204850720819,4074.0275430926304
85,232.216498125,1134,39816,0.8683608504247778,2.244870612752127e-05,1140.8992502661222,39470.205191509805,4089,0.06633592660682536,0.06681152491399912,4091.038007655814
86,232.75298569999998,1139,40188,0.868249886800152,2.2234881477122384e-05,1140.0961290176228,39725.27008539189,4116,0.06619324215739333,0.06671370098870594,4106.523703821073
87,233.289367925,1140,40578,0.867778574191436,2.2003615147609818e-05,1139.090239869511,39947.917053613135,4132,0.06583481652164858,0.06663049098746046,4120.000951323847
88,233.8256448,1132,40793,0.8676471171202086,2.1876581960117207e-05,1138.244286393781,40126.23089990636,4156,0.06615478384739443,0.06656830188562987,4130.958957167693
89,234.36181632499998,1124,40844,0.8677489292852631,2.1846649780595748e-05,1137.9143128949477,40252.37457246973,4165,0.06643566198279167,0.06651167627291482,4138.529638270324
90,234.89788249999998,1127,40784,0.8672589311593729,2.1868999953586325e-05,1137.6710910779188,40349.89395003207,4173,0.06661297385862394,0.06645323657826369,4144.072119413724
91,235.433843325,1134,40840,0.8668004592010585,2.1830465400721768e-05,1136.934721058213,40426.06720423942,4184,0.0665829194722014,0.06641418459213744,4148.324401458617
92,235.9696988,1138,41012,0.8665578153052318,2.1732402450349394e-05,1135.9991845794702,40466.09300323826,4174,0.06597957383926076,0.06640211118957298,4150.742417721726
93,236.505448925,1137,41029,0.8666098942893835,2.1723901892343918e-05,1135.0327753742788,40465.23486375604,4170,0.0658885944394791,0.0664137919930078,4150.769870212156
94,237.04109369999998,1128,41093,0.8664654382940954,2.168060648802941e-05,1133.697003329612,40427.40637386953,4173,0.06601744675604955,0.06644311196778842,4148.397721352612
95,237.576633125,1129,41079,0.8658853313998153,2.1674226067579857e-05,1132.2701986454742,40350.221590522226,4166,0.06582462456724003,0.06648087522798175,4143.307866542764
96,238.11206719999998,1142,41037,0.8659634438688039,2.1706064516074793e-05,1131.016149856147,40238.38050691898,4179,0.06592131793531915,0.06651312768872737,4135.550454143843
97,238.64739592499998,1143,41006,0.8653764850454776,2.1708764645046224e-05,1130.1644431357229,40105.97311377304,4195,0.06625514969668107,0.06654065320038904,4126.244218442015
98,239.1826193,1135,40877,0.865240351462597,2.1771434539343692e-05,1129.5445196946487,39964.06885773101,4188,0.0664681896486163,0.0665945246894716,4117.581576026559
99,239.71773732499997,1123,40678,0.8654717432609225,2.1880210928098152e-05,1129.1115087544235,39828.77129719737,4165,0.06655960164327458,0.06665214134976115,4109.922965412501
100,240.25275,1126,40177,0.8654328986505,2.2161606582430667e-05,1128.4562730752464,39694.09248227516,4142,0.0668394054526109,0.06670319431387457,4101.868286937338
101,240.787657325,1140,39712,0.8649750843904328,2.2424947744229824e-05,1127.3188294185381,39556.41475458031,4128,0.06700574385975872,0.06678340690470086,4094.417699155055
102,241.3224593,1141,39433,0.8650023747478218,2.25896368627343e-05,1126.935377924733,39431.270810210124,4101,0.06686532511369353,0.06686803746266973,4088.8655009172694
103,241.85715592499997,1138,39052,0.864426750181391,2.2799671630041438e-05,1127.050057758931,39310.53253754257,4073,0.06691703623417163,0.06693617191579679,4083.347663593661
104,242.3917472,1128,38776,0.8640504083213235,2.2950765201905107e-05,1127.7025753697487,39186.12609572056,4048,0.06701623438956292,0.06700768354579638,4078.3185802622156
105,242.92623312499998,1118,38758,0.8638615542876957,2.295062577810031e-05,1129.13853088403,39070.72339124254,4041,0.0670846791493872,0.06707031457217356,4074.4776552129506
106,243.46061369999998,1120,38394,0.8647030136247108,2.319855700018004e-05,1130.379442342953,38979.6280096937,4033,0.06757739654152445,0.06712658767919479,4071.9795918366563
107,243.994888925,1112,38101,0.863747888775786,2.3351479866332855e-05,1130.9159437359633,38914.599605879346,4016,0.06781269753183061,0.06718061276552564,4070.784819588135
108,244.52905879999997,1104,38258,0.8628771528607923,2.3224340659438883e-05,1130.5851095154826,38871.744456272325,4028,0.06790797208819929,0.06723600036976948,4070.779202246859
109,245.063123325,1118,38383,0.8633129275796555,2.316685703957213e-05,1130.5713832702675,38856.60114611808,4042,0.06773988998370892,0.06729156594831431,4073.215044508291
110,245.59708249999997,1128,38153,0.8623491049005171,2.329099540582085e-05,1131.090036014384,38875.051552695804,4020,0.0673575587136339,0.06731447206984008,4077.1723708350482
111,246.130936325,1133,37824,0.862505803534046,2.3507285261618547e-05,1131.4771342499046,38938.597793833775,4008,0.06758344512715332,0.06732335608118231,4083.792113071566
112,246.66468479999997,1139,37808,0.8631762817630669,2.3539673341598268e-05,1131.6421889510307,39054.910779405356,4013,0.06765302118375342,0.06732465812484768,4093.902194840122
113,247.19832792499997,1130,38119,0.8629529675416884,2.3329989119513596e-05,1131.9328863620703,39224.75990396083,4025,0.06754031850099186,0.06729772485472409,4106.859815624283
114,247.7318657,1116,38727,0.8621360146885437,2.2922443292880907e-05,1132.1649640988253,39442.28258850635,4067,0.06764413015729155,0.06725221661559677,4122.279168271004
115,248.265298125,1119,38870,0.8624878814902607,2.2846755887003276e-05,1132.2102878887185,39704.31778749161,4085,0.06776347796085172,0.06719731400609442,4140.34365444283
116,248.79862519999998,1133,38767,0.862427427307537,2.2916177586956925e-05,1132.3343224081868,40000.471267751615,4075,0.06741939446082727,0.06713572607288092,4160.707671747865
117,249.33184692499998,1136,39035,0.8621956715984717,2.2749826422820434e-05,1132.61944777909,40319.52340936298,4083,0.06704373846805183,0.06705565733845534,4182.0993906995955
118,249.8649633,1142,39573,0.8614594306460737,2.2415743296975715e-05,1133.010668418289,40678.714534869774,4118,0.06670925205179973,0.06694921429156608,4205.418741081257
119,250.397974325,1159,40100,0.861591555373828,2.212556316925164e-05,1133.3184670094233,41082.6550771244,4156,0.06631031281824716,0.06682450412456621,4231.0053681849295
