,x_(nm),baseline_dark,baseline_light,baseline_mirror,baseline_calibration,baseline_dark_smoothed,baseline_light_smoothed,raw_signal,calibrated_signal,calibrated_signal_smoothed,raw_signal_smoothed
0,186.23,1024,1029,0.3621226043733797,0.07242452087467594,1006.8323104116662,3670.4106200454853,1021,-0.2172735626240278,,1153.0105580693812
1,186.775442325,1026,1026,1.18800459154587,inf,1013.7106127727656,2762.7521019696505,1017,-inf,,1106.2021742223737
2,187.3207793,1020,1022,1.908567993433533,0.9542839967167664,1020.2032104698029,1968.8072049203595,1007,-12.405691957317964,,1065.6127415842966
3,187.86601092499998,1017,1024,1.7279185264672412,0.24684550378103445,1026.3202836399837,1284.6845784015995,1008,-2.22160953402931,,1031.0377763296897
4,188.41113719999998,1019,1027,1.043047789334166,0.13038097366677076,1032.072012420514,706.4928719173595,1006,-1.6949526576680198,,1002.2727946330924
5,188.956158125,1020,1025,0.840365554154959,0.1680731108309918,1037.468576948599,230.34073497162626,1003,-2.8572428841268604,,979.1133126690441
6,189.50107369999998,1038,1009,0.8202728553565946,-0.028285270874365328,1042.520157361445,-147.66318293161112,1008,0.8485581262309598,,961.3548466120844
7,190.045883925,1054,1031,0.837733819880384,-0.0364232095600167,1047.2369337962568,-431.4102322883655,1032,0.8013106103203673,,948.7929126367526
8,190.59058879999998,1049,1051,0.8116271105193998,0.4058135552596999,1051.6290863902407,-624.7917635946478,1044,-2.0290677762984997,,941.2230269175883
9,191.135188325,1053,1054,0.8262856362484797,0.8262856362484797,1055.7067952806024,-731.69912734647,1043,-8.262856362484797,,938.440705629131
10,191.67968249999998,1062,1055,0.8012221689422371,-0.11446030984889101,1059.4802406045471,-756.023674039845,1061,0.11446030984889101,,940.2414649459201
11,192.22407132499998,1059,1046,0.7775424502505143,-0.059810957711578024,1062.9596024992807,-701.6567541707855,1066,-0.41867670398104617,,946.4208210424953
12,192.7683548,1060,1049,0.7753865851703869,-0.07048968956094427,1066.155061102009,-572.4897182353025,1057,0.21146906868283283,,956.7742900933957
13,193.312532925,1070,1055,0.7956261498651602,-0.05304174332434401,1069.0767965499376,-372.41391672940654,1047,1.2199600964599122,,971.0973882731612
14,193.8566057,1075,1062,0.7908861747409445,-0.06083739805699573,1071.7349889802722,-105.32070014911187,1045,1.8251219417098719,,989.185631756331
15,194.400573125,1070,1075,0.7942231778648126,0.15884463557296252,1074.1398185302182,224.89858100957008,1058,-1.9061356268755503,,1010.8345367174446
16,194.9444352,1077,1081,0.7947581770897779,0.19868954427244448,1076.3014653369814,614.3525762506279,1066,-2.185584986996889,,1035.8396193310416
17,195.488191925,1093,1087,0.7914877943554887,-0.13191463239258144,1078.2301095377677,1059.1499350780505,1072,2.77020728024421,,1063.9963957716614
18,196.0318433,1098,1098,0.7911116722494277,inf,1079.9359312697825,1555.3993069958233,1079,-inf,,1095.1003822138434
19,196.575389325,1082,1100,0.7900325230816138,0.04389069572675632,1081.4291106702315,2099.209341507937,1076,-0.2633441743605379,,1128.9470948321275
20,197.11883,1065,1080,0.798472358442206,0.05323149056281373,1082.7198278763206,2686.6886881183736,1070,0.26615745281406866,,1165.3320498010526
21,197.662165325,1076,1080,0.7981102791346143,0.19952756978365357,1083.818263025255,3313.94599633113,1074,-0.39905513956730715,,1204.0507632951585
22,198.2053953,1088,1077,0.8040599544843242,-0.07309635949857493,1084.7345962542408,3977.089915650193,1074,1.023349032980049,,1244.8987514889848
23,198.74851992499998,1084,1060,0.8074165803696804,-0.03364235751540335,1085.4790077004836,4672.229095579539,1069,0.5046353627310503,,1287.6715305570708
24,199.2915392,1089,1071,0.8060625325032217,-0.044781251805734536,1086.0616775011888,5395.472185623173,1080,0.40303126625161084,,1332.1646166739556
25,199.83445312499998,1113,1104,0.8122546130835153,-0.09025051256483503,1086.492785793542,6142.927835284941,1102,0.9927556382131854,,1378.173526014153
26,200.3772617,1101,2039,0.8144257223941842,0.0008682576997805802,1086.9621508980742,6810.580035787771,1154,0.04601765808837075,,1419.76506829144
27,200.919964925,1079,5905,0.8150182986479615,0.00016888070838126014,1086.8226233889573,7492.007587940694,1376,0.05015757038923426,-inf,1461.9393644249872
28,201.4625628,1069,10311,0.8232603193402961,8.907815617185632e-05,1086.4763188293978,8186.999501687311,1624,0.04943837667538026,-inf,1504.5478493283817
29,202.005055325,1076,12190,0.8194894939197722,7.373488338309989e-05,1086.5933996239798,8896.550069084067,1730,0.048222613732547326,-inf,1548.9695349837752
30,202.5474425,1088,13029,0.8269202298982968,6.925050078706111e-05,1086.753924211173,9619.685225033227,1783,0.048129098047007476,-inf,1594.7001291082165
31,203.089724325,1083,13647,0.8298864771900701,6.605272820678686e-05,1086.4619357176625,10355.327731092239,1820,0.04868086068840192,-inf,1640.5653129175882
32,203.63190079999998,1082,14288,0.8293789756785952,6.280319367549562e-05,1086.0449160796186,11104.002287707324,1857,0.0486724750985091,-inf,1687.4037690547593
33,204.173971925,1087,14762,0.8303112569560028,6.0717459375210446e-05,1085.9251851683862,11864.753607102992,1899,0.049302577012670885,-inf,1736.4444721284408
34,204.71593769999998,1096,15098,0.832804584655424,5.947754496896329e-05,1085.6452920790748,12627.713538245245,1936,0.04996113777392916,-inf,1786.3127364152863
35,205.257798125,1099,15389,0.8371769300637781,5.8584809661565996e-05,1085.623049219667,13386.870416090707,1962,0.050558690737931455,-inf,1836.3335069876653
36,205.7995532,1089,15791,0.8381556767340916,5.700963656197059e-05,1086.1082923735323,14137.572176039957,1993,0.05153671145202141,-inf,1887.4258760107455
37,206.34120292499998,1090,16362,0.840625124319978,5.504355188056431e-05,1086.1662098801578,14880.129198849068,2029,0.05168589521584988,-inf,1938.7571632426186
38,206.88274729999998,1094,16951,0.8415937915656597,5.3073960494775795e-05,1085.6594033839742,15613.327889646125,2067,0.05164096356141685,inf,1989.033500192492
39,207.424186325,1077,17293,0.8431564976534377,5.199534395988146e-05,1085.1967881492012,16328.68556479164,2090,0.05267128343135992,inf,2037.5586083489611
40,207.96552,1062,17564,0.844165982526256,5.1155374047161314e-05,1084.8283086819424,17025.072232666324,2107,0.053457365879283576,inf,2085.3178554440246
41,208.506748325,1061,17892,0.8476484869242688,5.036233657680879e-05,1084.4919930236038,17705.38698498233,2126,0.05363588845430137,inf,2132.9595913836824
42,209.0478713,1079,18295,0.8491768105118729,4.932486120538295e-05,1083.8779587306412,18365.72443316914,2169,0.05376409871386742,inf,2180.4856055629384
43,209.588888925,1093,18825,0.8502736512177026,4.795136765270148e-05,1083.3658973022964,18999.48796122186,2201,0.053130115359193236,inf,2226.81766291418
44,210.12980119999997,1076,19264,0.8513731200582484,4.680960633704906e-05,1083.4380167160994,19604.273935989113,2234,0.05420552413830281,0.05486649500318137,2271.797571858888
45,210.670608125,1066,19702,0.8534308197221572,4.579474241908978e-05,1083.3555233413915,20168.524315386145,2273,0.055274254099841366,0.035189981276542825,2314.854945751841
46,211.2113097,1071,20104,0.8557212941711507,4.495987464777758e-05,1082.6179981426326,20690.117216697603,2302,0.0553456056914142,0.030311683783518468,2355.4826609888787
47,211.751905925,1074,20311,0.8575135521308375,4.457626200191493e-05,1081.8840517338801,21165.898095086686,2322,0.05563117497838983,0.004607008305340885,2393.3596457450444
48,212.29239679999998,1082,20597,0.8580327959771828,4.3967860413896124e-05,1081.6136718838272,21585.92081360805,2357,0.05605902202771756,0.02180391119819273,2428.320867969783
49,212.83278232499998,1088,21040,0.8587529108532552,4.3040943807801485e-05,1081.3096332872562,21955.18802237834,2396,0.05629755450060434,0.0274286053293539,2460.93993068921
50,213.37306249999997,1087,21437,0.8598387128136875,4.2252516600181207e-05,1080.9850732745722,22275.178259982815,2440,0.057167654960045174,0.0320912256761854,2491.0128428729504
51,213.91323732499998,1092,21872,0.8611437003932625,4.144098654443034e-05,1080.9478130874784,22537.690412013435,2491,0.05797594017565805,0.057688386308719024,2517.9022854424306
52,214.45330679999998,1111,22521,0.8624756676121401,4.0283777095382536e-05,1080.7402206165277,22773.86522911007,2554,0.058129490348637,0.05803719083173909,2543.479535210262
53,214.993270925,1109,23134,0.8630074298534857,3.918308421582228e-05,1079.3191238759448,23081.8467688958,2615,0.05900972482902835,0.05849850386865603,2573.169947224124
54,215.5331297,1083,23661,0.8629495266956824,3.8220813477530444e-05,1077.4685949851432,23493.897075811004,2635,0.05931870251712725,0.05892106716349445,2608.495073501049
55,216.07288312499998,1072,24148,0.8648478670709356,3.747824003600865e-05,1077.0234433395794,23943.28850030532,2661,0.05955292341721775,0.059279568461738534,2646.696210559645
56,216.61253119999998,1076,24579,0.8650803831098881,3.680723240053985e-05,1077.8479920269788,24400.0282452599,2721,0.06054789729888805,0.059612612867815884,2686.245985186476
57,217.152073925,1089,24866,0.8652291434094919,3.638933185050645e-05,1079.2137987270173,24866.284038143083,2757,0.060697405526644765,0.0599369312455562,2727.018641418779
58,217.69151129999997,1090,25091,0.8680312398394996,3.6166461390754534e-05,1080.3843348660012,25346.736573874343,2764,0.06054265636812309,0.06024384391406819,2768.919545176508
59,218.230843325,1086,25533,0.868212549145114,3.551407326645863e-05,1081.0474076422813,25840.176176130342,2800,0.06087112157871009,0.06054586805316741,2811.584271444373
60,218.77006999999998,1075,26072,0.868144571802742,3.472995046616562e-05,1081.872885003037,26342.0691295381,2841,0.06133309252324848,0.06083650356547628,2855.0238737003683
61,219.30919132499997,1059,26688,0.8681762475955156,3.3874760919096166e-05,1082.9310063647893,26846.643751839845,2864,0.06114394345896858,0.06110509534751247,2898.3717184986644
62,219.84820729999998,1062,27196,0.868951283960652,3.324983867607913e-05,1084.2577634827305,27355.929896486374,2896,0.06098020413192913,0.06135761870165164,2941.727717502039
63,220.38711792499998,1075,27650,0.8691522224557424,3.27056339588238e-05,1085.6702983079817,27877.073410495737,2952,0.06138847494071227,0.06158324366604768,2985.5078937234703
64,220.9259232,1079,28299,0.8692686507714266,3.193492471607004e-05,1087.138802690867,28415.472309678047,3027,0.062209233346904445,0.06177897161362313,3030.180910099831
65,221.464623125,1078,28902,0.8701622824311823,3.127380256006262e-05,1087.8174364085048,28963.73639266972,3072,0.062359962304764864,0.0619930420391067,3075.734648576353
66,222.0032177,1068,29299,0.86932404321908,3.079324300304913e-05,1087.5466488481975,29512.34777684603,3103,0.06266424951120497,0.06220975892319573,3120.790142472023
67,222.54170692499997,1081,29683,0.8705973257298546,3.0438337379548793e-05,1087.07563025208,30060.20736596467,3120,0.06206376991689999,0.062401816024834265,3165.0827198803445
68,223.0800908,1095,30156,0.8704844215444587,2.9953698136487344e-05,1087.114090919366,30610.32954313742,3163,0.06194424774625583,0.06256644114725567,3209.4863983328564
69,223.61836932499997,1084,30582,0.8703398065724872,2.9505044632601776e-05,1087.2386237513665,31160.581032412367,3206,0.06260970471038096,0.06267539318137667,3252.7501189154286
70,224.1565425,1074,31275,0.8697053263836744,2.8797236064490393e-05,1086.8488527486259,31709.117420552517,3251,0.06269158291239559,0.06278708079712379,3295.5719495344674
71,224.69461032499999,1076,31915,0.8700422735223692,2.8212402267335816e-05,1086.2291105121085,32257.995198078606,3302,0.06280080744708953,0.06289848958765525,3338.159256155228
72,225.23257279999999,1084,32570,0.8700397124616915,2.7632589482998526e-05,1085.5019366236852,32802.205485967344,3368,0.06311283437916863,0.06298428113647771,3379.690049604683
73,225.77042992499997,1080,33469,0.8700678242154535,2.686306536834893e-05,1084.7832566988852,33335.10625382164,3431,0.06315506668098833,0.06304580086866432,3419.8091009988248
74,226.30818169999998,1077,34082,0.8699872642519537,2.6359256605119033e-05,1084.136854741876,33857.13126005054,3460,0.06281410848999866,0.0630903322271194,3458.8865659470675
75,226.84582812499997,1083,34522,0.8700242014773532,2.601824819753441e-05,1083.6127885116102,34374.229110511464,3501,0.0629121241416382,0.06310628510830138,3496.914811207435
76,227.3833692,1103,35110,0.8696880407569096,2.5573794829208974e-05,1082.9441210446234,34880.30068631159,3570,0.06309055184365854,0.06311542225127396,3533.6931527327233
77,227.92080492499997,1106,35472,0.87010037851645,2.5318639891650176e-05,1082.2879113909505,35369.49226482978,3604,0.06324596244934214,0.0631276192653219,3569.370857777005
78,228.45813529999998,1134,35713,0.8693067287349536,2.5139730146474844e-05,1082.2665519037596,35847.065414844496,3639,0.06297502401691948,0.06312272128616188,3604.272259847266
79,228.99536032499998,1148,36037,0.8691277262341458,2.491122492000762e-05,1082.5363654895714,36309.089968062,3685,0.06319977762205933,0.06312947303191983,3638.665020725201
80,229.53248,1114,36598,0.86926662631248,2.449742493271559e-05,1082.197059956037,36747.695327186775,3708,0.06354632027546424,0.06311528178136887,3670.07094158411
81,230.069494325,1085,37341,0.8686441253792921,2.395863099567774e-05,1081.2730752678224,37167.50250288723,3735,0.06349037213854601,0.06308426773389252,3699.0196606943964
82,230.60640329999998,1059,37870,0.868302707705708,2.3588131474442642e-05,1080.3877777525897,37561.1584180835,3748,0.06342848553477627,0.06307650040806033,3726.787809463337
83,231.143206925,1059,38294,0.8687016218294412,2.3330243637154324e-05,1079.8628961018162,37911.26295046247,3759,0.06299165782031667,0.06306368998432854,3751.6083036987666
84,231.67990519999998,1078,38587,0.8683284847277679,2.3149870290537415e-05,1079.3941878638043,38216.494212778714,3784,0.06264354900619425,0.06303211278572977,3772.613445378079
85,232.216498125,1082,38846,0.8683608504247778,2.299440870736092e-05,1078.8882647398375,38490.85254479077,3801,0.06252179727531434,0.06300527453312141,3791.4948243447593
86,232.75298569999998,1079,39194,0.868249886800152,2.277974253706289e-05,1078.1990758567372,38735.7086457217,3833,0.0627354109470712,0.06297798154519386,3808.0385286189216
87,233.289367925,1059,39537,0.867778574191436,2.2552590420277458e-05,1077.1805023896145,38946.53912885835,3864,0.06326001612887827,0.06292572498311459,3821.033092482202
88,233.8256448,1053,39777,0.8676471171202086,2.240592699928232e-05,1076.277582731185,39115.40098303397,3883,0.06340877340796897,0.06285203551756097,3830.3294298850883
89,234.36181632499998,1051,39813,0.8677489292852631,2.2386588134906948e-05,1075.761648055428,39235.0369883795,3883,0.06339881759805648,0.06278217183375952,3836.4916759155763
90,234.89788249999998,1056,39767,0.8672589311593729,2.2403423604643976e-05,1075.0632403904751,39325.502004574664,3858,0.06277439294021242,0.06273642291516765,3841.2329384583286
91,235.433843325,1067,39865,0.8668004592010585,2.234136963763747e-05,1073.9993884345986,39394.765000339,3862,0.06244412813719673,0.06268989372543267,3844.0026727671466
92,235.9696988,1066,39964,0.8665578153052318,2.2277695904808263e-05,1072.3770640331397,39426.42927359547,3868,0.062422103925272754,0.06266002336762633,3844.236245441499
93,236.505448925,1061,39946,0.8666098942893835,2.2286483072891435e-05,1070.5471018595913,39415.553761126335,3861,0.06240215260409602,0.06262616256270394,3841.131803664788
94,237.04109369999998,1070,40062,0.8664654382940954,2.222162080155148e-05,1069.1318489659811,39371.79412897159,3881,0.06246497607316121,0.06256222339658975,3834.8527939476944
95,237.576633125,1069,40096,0.8658853313998153,2.218682787300626e-05,1067.7521801173095,39292.931504676584,3873,0.06221186535590955,0.062493812046637,3825.7594056489793
96,238.11206719999998,1062,39977,0.8659634438688039,2.2252690321696104e-05,1066.0444404176562,39180.28512537016,3856,0.062174016758818916,0.062441627325018546,3814.716324265482
97,238.64739592499998,1065,39899,0.8653764850454776,2.2283990447687018e-05,1064.7602210695393,39041.98511857499,3849,0.06203862940636066,0.06239356685206083,3802.254343246659
98,239.1826193,1063,39735,0.865240351462597,2.237381959719169e-05,1064.01605925387,38893.099639855194,3836,0.06204260174301256,0.062347725317268364,3789.615551881057
99,239.71773732499997,1065,39495,0.8654717432609225,2.252073232529072e-05,1063.0432852386034,38751.9302362447,3816,0.06195453462687477,0.06229972340865592,3777.32268001533
100,240.25275,1065,39072,0.8654328986505,2.2770355425329546e-05,1061.957167772749,38610.498652290364,3792,0.06209475924487367,0.06224673746357131,3764.7157353506714
101,240.787657325,1068,38673,0.8649750843904328,2.300159777663696e-05,1060.9599990939569,38464.568665201194,3773,0.062219321985802975,0.062202671430500775,3752.236879657451
102,241.3224593,1073,38393,0.8650023747478218,2.3177984318001658e-05,1060.485900020365,38330.97830075354,3751,0.06207064200360844,0.06215823080833529,3741.00525493209
103,241.85715592499997,1074,38069,0.864426750181391,2.336604271337724e-05,1060.3316949421073,38204.33785589634,3727,0.06199011131858982,0.06211415647818335,3730.475843167384
104,242.3917472,1067,37787,0.8640504083213235,2.3530784540341055e-05,1061.1979659788242,38075.934698406934,3689,0.06169771706477425,0.06205609967831026,3720.2245803981255
105,242.92623312499998,1063,37643,0.8638615542876957,2.3615679450183044e-05,1062.8062243765226,37957.44449477831,3690,0.062038389915630855,0.06199214539554605,3711.03143899062
106,243.46061369999998,1070,37241,0.8647030136247108,2.3905974776055703e-05,1064.1821332306304,37867.01950213975,3674,0.06225115831684905,0.06193510832504372,3703.784525130736
107,243.994888925,1071,36954,0.863747888775786,2.407122840274743e-05,1064.942762010444,37802.29978028875,3645,0.06195934190867188,0.06187994967624844,3697.9002921922784
108,244.52905879999997,1072,37071,0.8628771528607923,2.396947562045591e-05,1065.2589413123535,37756.59167817998,3652,0.061841247100776243,0.0618197305507193,3692.759405648982
109,245.063123325,1073,37146,0.8633129275796555,2.3932385096322886e-05,1065.7154861944573,37735.62766993518,3658,0.061865215473994664,0.061754057919146094,3689.291716686604
110,245.59708249999997,1072,36922,0.8623491049005171,2.4054368337531856e-05,1066.5139867267458,37749.58130421908,3631,0.061555128575744016,0.06168291829961795,3688.413531450245
111,246.130936325,1067,36715,0.862505803534046,2.419506854617499e-05,1067.5866044530817,37813.24369747827,3613,0.06160064451856152,0.06159134627763763,3690.1610908513644
112,246.66468479999997,1058,36753,0.8631762817630669,2.418199416621563e-05,1068.7422591677976,37929.564180388414,3617,0.0618817230713458,0.06150238304828369,3695.7273097917705
113,247.19832792499997,1050,37014,0.8629529675416884,2.399491067572262e-05,1069.206663797574,38096.30333642818,3637,0.06207483391809442,0.06144524843033741,3705.861786223853
114,247.7318657,1043,37565,0.8621360146885437,2.3605936550258575e-05,1069.200638746044,38311.451675008895,3670,0.062012795317529276,0.06140920800854298,3720.0703979704385
115,248.265298125,1048,37734,0.8624878814902607,2.351000058578915e-05,1069.2069129538404,38568.215656073015,3675,0.061760771538868095,0.061382377801711845,3737.6921334570843
116,248.79862519999998,1056,37645,0.862427427307537,2.357067499269007e-05,1069.674239507103,38855.98056581048,3676,0.061755168480847986,0.06133655396915206,3757.011506489316
117,249.33184692499998,1062,37958,0.8621956715984717,2.3368269503427788e-05,1070.5000566264036,39170.696255860086,3686,0.061318339176994516,0.06127724623993062,3777.9579152414954
118,249.8649633,1082,38521,0.8614594306460737,2.300968056427986e-05,1071.2753176742192,39528.06111123619,3713,0.06053846956462031,0.06121057290011275,3801.3863281160793
119,250.397974325,1087,38960,0.861591555373828,2.2749493184427642e-05,1071.3936442501324,39931.78844367859,3770,0.06103689021381936,0.06113897706026826,3827.053998958
