,x_(nm),baseline_dark,baseline_light,baseline_mirror,baseline_calibration,baseline_dark_smoothed,baseline_light_smoothed,raw_signal,calibrated_signal,calibrated_signal_smoothed,raw_signal_smoothed
0,186.23,1404,1386,0.3621226043733797,-0.02011792246518776,1373.5090829752307,4338.300618812283,1357,0.9455423558638247,,1496.2577636118142
1,186.775442325,1400,1380,1.18800459154587,-0.0594002295772935,1378.6479941565394,3325.739348808391,1352,2.851211019710088,,1443.7228157381317
2,187.3207793,1391,1382,1.908567993433533,-0.21206311038150366,1383.4144018516931,2439.75388551809,1341,10.603155519075184,,1398.0420125218282
3,187.86601092499998,1384,1385,1.7279185264672412,1.7279185264672412,1387.8211004188802,1676.0296635667692,1334,-86.39592632336206,,1358.982838357081
4,188.41113719999998,1382,1388,1.043047789334166,0.17384129822236102,1391.880884216289,1030.2521175798192,1335,-8.170541016450969,,1326.3127776380668
5,188.956158125,1380,1385,0.840365554154959,0.1680731108309918,1395.6065476021076,498.1066821826307,1341,-6.55485132240868,,1299.7993147589625
6,189.50107369999998,1369,1382,0.8202728553565946,0.06309791195050728,1399.010884934525,75.27879200059306,1330,-2.4608185660697837,,1279.2099341139453
7,190.045883925,1388,1399,0.837733819880384,0.07615761998912582,1402.1066905717291,-242.54611834090338,1336,-3.9601962394345427,,1264.312120097192
8,190.59058879999998,1398,1410,0.8116271105193998,0.06763559254328332,1404.9067588719086,-459.6826142164673,1349,-3.3141440346208824,,1254.8733571028797
9,191.135188325,1399,1409,0.8262856362484797,0.08262856362484797,1407.4238841932513,-580.4452610007083,1363,-2.9746282904945267,,1250.661129525185
10,191.67968249999998,1415,1408,0.8012221689422371,-0.11446030984889101,1409.6708608939462,-609.1486240682389,1370,5.1507139432000955,,1251.4429217582854
11,192.22407132499998,1410,1404,0.7775424502505143,-0.1295904083750857,1411.6604833321812,-550.1072687936676,1371,5.054025926628342,,1256.9862181963574
12,192.7683548,1399,1399,0.7753865851703869,inf,1413.405545866145,-407.6357605516023,1360,-inf,,1267.0585032335782
13,193.312532925,1391,1394,0.7956261498651602,0.2652087166217201,1414.9188428540258,-186.04866471665446,1353,-10.077931231625364,,1281.4272612641248
14,193.8566057,1393,1402,0.7908861747409445,0.08787624163788271,1416.213168654012,110.33945333656538,1364,-2.548411007498599,,1299.859976682174
15,194.400573125,1413,1422,0.7942231778648126,0.08824701976275695,1417.3013176242919,477.2140282334508,1381,-2.8239046324082224,,1322.1241338819027
16,194.9444352,1429,1443,0.7947581770897779,0.05676844122069842,1418.196084123054,910.260494599389,1393,-2.0436638839451433,,1347.9872172574878
17,195.488191925,1433,1455,0.7914877943554887,0.035976717925249486,1418.9102625084865,1405.1642870597707,1401,-1.1512549736079836,,1377.2167112031068
18,196.0318433,1436,1453,0.7911116722494277,0.04653598072055457,1419.456647138778,1957.6108402399855,1405,-1.4426154023371918,,1409.5801001129362
19,196.575389325,1431,1442,0.7900325230816138,0.07182113846196489,1419.8480323721164,2563.285588765424,1397,-2.4419187077068063,,1444.844868381153
20,197.11883,1430,1431,0.798472358442206,0.798472358442206,1420.0972125666908,3217.873967261479,1385,-35.93125612989927,,1482.7785004019343
21,197.662165325,1436,1429,0.7981102791346143,-0.11401575416208776,1420.216982080689,3917.0614103535377,1395,4.674645920645598,,1523.1484805694568
22,198.2053953,1430,1416,0.8040599544843242,-0.05743285389173745,1420.2201352722993,4656.533352666993,1385,2.584478425128185,,1565.7222932778977
23,198.74851992499998,1418,1411,0.8074165803696804,-0.1153452257670972,1420.1194664997104,5431.975228827228,1368,5.76726128835486,,1610.2674229214338
24,199.2915392,1428,1434,0.8060625325032217,0.13434375541720361,1419.9277701211104,6239.072473459638,1365,-8.463656591283828,,1656.551353894242
25,199.83445312499998,1452,1452,0.8122546130835153,inf,1419.6578404946613,7073.5105211894725,1384,-inf,-inf,1704.3415705904677
26,200.3772617,1445,2499,0.8144257223941842,0.0007726999263701937,1420.1534576094316,7816.982468458934,1440,-0.0038634996318509685,-inf,1747.4766359373602
27,200.919964925,1419,6780,0.8150182986479615,0.00015202728943256136,1420.6612833812499,8577.392239914669,1685,0.040439258989061325,-inf,1791.1494937597338
28,201.4625628,1410,11774,0.8232603193402961,7.943461205521962e-05,1420.9986636163626,9357.254524451111,1963,0.04392734046653645,-inf,1835.745249042978
29,202.005055325,1419,13827,0.8194894939197722,6.60452525725155e-05,1421.3871435366327,10156.80488799274,2104,0.045240998012173114,-inf,1881.395886656513
30,202.5474425,1420,14735,0.8269202298982968,6.210441080723221e-05,1421.4937824186009,10970.833473011638,2163,0.04614357722977353,-inf,1927.8529978028575
31,203.089724325,1417,15425,0.8298864771900701,5.92437519410387e-05,1421.1190966952547,11797.682733470523,2192,0.04591390775430499,-inf,1975.2132551133286
32,203.63190079999998,1414,16127,0.8293789756785952,5.637048703042175e-05,1420.2895195813906,12639.16935830912,2224,0.04566009449464162,,2022.9722304015559
33,204.173971925,1417,16671,0.8303112569560028,5.443236245942066e-05,1419.8053410042987,13492.93793743887,2246,0.04512442847885973,,2071.846904799616
34,204.71593769999998,1411,17063,0.832804584655424,5.32075507702162e-05,1419.1845568415772,14347.746766630906,2276,0.04602453141623701,,2121.057419194052
35,205.257798125,1412,17408,0.8371769300637781,5.233664228955852e-05,1418.435955514254,15198.370087657413,2309,0.046945968133733994,,2170.08697818746
36,205.7995532,1410,17869,0.8381556767340916,5.092385179744162e-05,1418.1465944868241,16040.590500350776,2324,0.046544400542861644,,2219.1602754308847
37,206.34120292499998,1402,18543,0.840625124319978,4.904177844466356e-05,1417.8360098756214,16874.45989716609,2348,0.04639352240865173,,2268.1228566898017
38,206.88274729999998,1400,19206,0.8415937915656597,4.726461819418509e-05,1417.3118077419376,17700.970690162518,2390,0.04679197201224324,-inf,2316.118168021881
39,207.424186325,1400,19573,0.8431564976534377,4.6396109484038834e-05,1416.5191963577613,18509.413440847682,2417,0.04718484334526749,-inf,2362.699925253075
40,207.96552,1397,19930,0.844165982526256,4.554934346982442e-05,1415.5781104894515,19294.60474755903,2433,0.0471891198347381,-inf,2408.461233549978
41,208.506748325,1403,20338,0.8476484869242688,4.476622587400416e-05,1415.1142494733467,20063.399216289905,2453,0.04700453716770436,-inf,2453.8756257219397
42,209.0478713,1417,20749,0.8491768105118729,4.3925967851845276e-05,1415.222632449179,20810.713696799077,2500,0.04757182318354843,-inf,2498.552787152549
43,209.588888925,1422,21299,0.8502736512177026,4.2776759632625775e-05,1415.5372488617818,21529.505062401906,2539,0.04778164050964299,-inf,2542.0867743323256
44,210.12980119999997,1419,21792,0.8513731200582484,4.178928582232604e-05,1415.8588189992706,22216.61559718184,2552,0.0473472608366954,-inf,2584.406487123101
45,210.670608125,1418,22337,0.8534308197221572,4.079692240174756e-05,1416.1147930870188,22858.16951686291,2570,0.04699805460681319,inf,2624.05750979632
46,211.2113097,1415,22783,0.8557212941711507,4.004685951755666e-05,1416.625042469791,23449.606355749394,2593,0.047175200511681746,inf,2660.834990599962
47,211.751905925,1418,22980,0.8575135521308375,3.976966664181604e-05,1417.465288001966,23989.083784456714,2620,0.04780313930346288,inf,2694.9918231443003
48,212.29239679999998,1429,23326,0.8580327959771828,3.918494752601648e-05,1418.4539853677047,24466.605902737985,2666,0.048471780089682386,inf,2725.9500101927038
49,212.83278232499998,1432,23860,0.8587529108532552,3.8289321867899736e-05,1419.2821354956807,24886.453464404152,2705,0.04874230673783637,inf,2753.6770708282784
50,213.37306249999997,1436,24374,0.8598387128136875,3.748533929783275e-05,1420.2523726471452,25249.45382681326,2732,0.04858099972999124,inf,2777.8939047316508
51,213.91323732499998,1433,24918,0.8611437003932625,3.666781777275974e-05,1421.4406215316042,25547.276880563055,2767,0.04891486890886149,0.0504716300711491,2798.742010011498
52,214.45330679999998,1430,25629,0.8624756676121401,3.564096316426878e-05,1422.5500690842102,25813.59983238529,2824,0.049683502650990675,0.04939832431471004,2818.0923690230275
53,214.993270925,1426,26202,0.8630074298534857,3.483239545743807e-05,1422.4080047112914,26158.630365353187,2858,0.049879990295051316,0.04947558049720227,2841.592652155147
54,215.5331297,1413,26681,0.8629495266956824,3.415187298938113e-05,1421.6694149357581,26622.647715689534,2884,0.05023740516737964,0.0496309396552968,2871.432875036752
55,216.07288312499998,1414,27245,0.8648478670709356,3.3481006042001304e-05,1421.8575958685087,27127.137647511317,2920,0.05042239509925396,0.049814038719243586,2905.0767854310975
56,216.61253119999998,1422,27767,0.8650803831098881,3.283660592559833e-05,1422.6076468322908,27636.78925909934,2953,0.05027284367209105,0.050011297963760346,2939.5660377357926
57,217.152073925,1419,28109,0.8652291434094919,3.241772736641034e-05,1423.3869170309363,28153.138281727253,2979,0.05057165469160013,0.050207768367432154,2974.9339056376693
58,217.69151129999997,1419,28410,0.8680312398394996,3.216002518763661e-05,1424.0250741805883,28681.085573851637,2988,0.05045907951940184,0.05039240025968559,3011.039117533748
59,218.230843325,1430,28965,0.868212549145114,3.1531234761035556e-05,1424.5740107363426,29222.36913633322,3024,0.050260788209090676,0.050547476289224604,3047.446963691078
60,218.77006999999998,1434,29590,0.868144571802742,3.0833377319318864e-05,1425.088246619375,29772.005436136147,3077,0.05065923893564089,0.05072109403804522,3084.9782554530657
61,219.30919132499997,1435,30269,0.8681762475955156,3.010946270359699e-05,1425.9183899974812,30322.893293165736,3113,0.05052367841663575,0.05090408251340701,3122.894901356709
62,219.84820729999998,1432,30844,0.868951283960652,2.9544107301803755e-05,1426.9870891752653,30874.925570227497,3142,0.05052042348608442,0.05105660664525095,3160.3620920065537
63,220.38711792499998,1427,31254,0.8691522224557424,2.913978014737461e-05,1427.421889510494,31437.550046433065,3180,0.05108203459834769,0.051197945106691595,3197.864436340513
64,220.9259232,1424,31900,0.8692686507714266,2.8523055872536637e-05,1427.387460644608,32018.43004371498,3230,0.05151263890580116,0.051335384024036396,3235.980701714586
65,221.464623125,1426,32636,0.8701622824311823,2.7880880564920934e-05,1427.5694126707015,32607.520419487926,3273,0.051495986403408966,0.051467054225105585,3274.599334073189
66,222.0032177,1427,33025,0.86932404321908,2.751199579780619e-05,1427.4996942172822,33198.84001902584,3301,0.0515574801250888,0.05159001449826543,3313.1177603116084
67,222.54170692499997,1424,33426,0.8705973257298546,2.7204466149923585e-05,1427.0919160116605,33788.488527485824,3331,0.05187891694790428,0.05169978398647482,3351.1037396089873
68,223.0800908,1423,33900,0.8704844215444587,2.6803104398326776e-05,1427.0457768012589,34375.71847606902,3364,0.05202482563715227,0.05181297056830676,3389.469727513582
69,223.61836932499997,1429,34305,0.8703398065724872,2.6473409373782918e-05,1427.4047883303992,34962.559854129664,3387,0.05183493555386695,0.05191661621399565,3427.957801988654
70,224.1565425,1430,35028,0.8697053263836744,2.588562790593709e-05,1427.393145937593,35548.235158213545,3439,0.05200422646302762,0.05199997637358413,3465.761330947407
71,224.69461032499999,1423,35791,0.8700422735223692,2.5315475835730014e-05,1426.8812657138055,36134.131848965306,3486,0.05222582664911102,0.05206262075061837,3502.827108201704
72,225.23257279999999,1420,36505,0.8700397124616915,2.4798053654316418e-05,1426.250288794736,36713.634057395844,3540,0.052571873747150805,0.05211627879713871,3539.26138757383
73,225.77042992499997,1410,37437,0.8700678242154535,2.4150437844268286e-05,1425.7279213571946,37278.98946748439,3587,0.05257550318697206,0.05217193800088225,3575.084622528188
74,226.30818169999998,1401,38111,0.8699872642519537,2.3698917577007728e-05,1425.6042945479805,37832.89999773421,3616,0.05249310243307212,0.05222179594723246,3610.3048313664394
75,226.84582812499997,1403,38621,0.8700242014773532,2.3376436172748487e-05,1425.854356837047,38383.420983487,3656,0.05266711069720234,0.052251797599059076,3644.8780719834403
76,227.3833692,1422,39237,0.8696880407569096,2.299849373943963e-05,1426.1017010577543,38925.37498018001,3706,0.05252855970088012,0.052268364861068964,3678.7123151146543
77,227.92080492499997,1424,39657,0.87010037851645,2.2757836908337037e-05,1426.0103513103081,39453.98260436175,3726,0.05238854056299186,0.052287197184209835,3711.663072776209
78,228.45813529999998,1446,39877,0.8693067287349536,2.261993517563825e-05,1426.1017916600329,39974.67401300066,3761,0.05236514993160255,0.05231726802984276,3744.588167342337
79,228.99536032499998,1463,40147,0.8691277262341458,2.246736961622753e-05,1426.1762440825114,40475.71095607977,3797,0.05243884068427506,0.05234245599939827,3776.1733448095497
80,229.53248,1446,40686,0.86926662631248,2.2152564381051988e-05,1425.8185915875508,40947.39876327811,3814,0.05245727245433111,0.05237090009034615,3805.766246121017
81,230.069494325,1431,41491,0.8686441253792921,2.1683577767830556e-05,1425.4816643638314,41402.77415116911,3862,0.05271277755359608,0.052405263626612915,3834.793675960877
82,230.60640329999998,1428,42117,0.868302707705708,2.133998642644715e-05,1425.056513171279,41836.70667512208,3881,0.05234698670407486,0.05244306703963649,3862.8112528029346
83,231.143206925,1430,42632,0.8687016218294412,2.108396732754335e-05,1424.2268681057055,42227.818297129365,3905,0.05218281913566979,0.052504257024247165,3888.954177897499
84,231.67990519999998,1437,42928,0.8683284847277679,2.0928116572937935e-05,1423.3683209132437,42576.076060612104,3931,0.052194722732907206,0.05255638387048689,3912.182858048805
85,232.216498125,1433,43185,0.8683608504247778,2.0798065971085884e-05,1422.8411515549342,42900.8908242534,3932,0.05197436686174362,0.052579023017367395,3933.0840562639405
86,232.75298569999998,1422,43570,0.868249886800152,2.06000257853315e-05,1422.5679177331037,43202.984846768064,3957,0.052221065365815354,0.05259981931718822,3952.785884164911
87,233.289367925,1408,44036,0.867778574191436,2.0357008871901943e-05,1422.7042515118983,43474.204240185805,3990,0.05256179690725082,0.05261070610079882,3970.7869940428245
88,233.8256448,1416,44385,0.8676471171202086,2.019239724266817e-05,1422.9072232666379,43704.907608325506,4012,0.052419463241966564,0.05262289999227115,3986.5106797435187
89,234.36181632499998,1425,44435,0.8677489292852631,2.0175515677406723e-05,1422.5910892658678,43886.480962195354,4030,0.05255721833964452,0.05266379641079206,3999.941312373929
90,234.89788249999998,1412,44442,0.8672589311593729,2.0154750898428374e-05,1422.2404810980722,44043.02158599204,4033,0.05282560210478077,0.05271621057474363,4012.33309927737
91,235.433843325,1410,44531,0.8668004592010585,2.010158528793531e-05,1422.18104600328,44186.203356813574,4038,0.052826966136694,0.052756827761136396,4023.6459489455383
92,235.9696988,1421,44716,0.8665578153052318,2.001519379386146e-05,1422.5613037667622,44293.65437495668,4055,0.052720020453031084,0.05279584638501228,4033.19035538736
93,236.505448925,1419,44854,0.8666098942893835,1.9951879688946323e-05,1422.5053795102676,44360.0508052269,4065,0.05279267365695197,0.052855642756432536,4040.620535006378
94,237.04109369999998,1407,44999,0.8664654382940954,1.9876707613646894e-05,1421.850007927672,44394.342272757305,4074,0.05301117920559627,0.052927995071108395,4046.1634691611716
95,237.576633125,1413,45053,0.8658853313998153,1.984155204857505e-05,1421.324695916075,44393.26467190565,4079,0.052897577761501086,0.05299300420365918,4049.4394210513615
96,238.11206719999998,1427,45039,0.8659634438688039,1.9856081901054844e-05,1420.9578699404017,44357.54023873615,4083,0.05273775352920167,0.05305952712601128,4050.76771840804
97,238.64739592499998,1427,45075,0.8653764850454776,1.9826257446973e-05,1420.4369521393191,44300.13173571231,4081,0.05261888726426634,0.05313557583076137,4050.85148021465
98,239.1826193,1425,45014,0.865240351462597,1.9849970209516096e-05,1420.041586445872,44235.18328840885,4075,0.05260242105521765,0.053225401552397245,4051.26607624174
99,239.71773732499997,1422,44875,0.8654717432609225,1.991742211725134e-05,1419.3852182382116,44180.08115699025,4084,0.05302017767612306,0.05332905235158427,4052.928628054918
100,240.25275,1412,44524,0.8654328986505,2.0074060555077474e-05,1418.3480939545357,44126.727151237006,4086,0.05367803792427717,0.05343581001708619,4054.480101474474
101,240.787657325,1416,44207,0.8649750843904328,2.0213948830137944e-05,1417.4217989082154,44067.74067362709,4074,0.05372867599050666,0.053551468332318705,4056.1407732903704
102,241.3224593,1426,43980,0.8650023747478218,2.0327169590351596e-05,1417.0509411311423,44020.16480554402,4069,0.053724709227299265,0.05366815034191551,4059.103694307834
103,241.85715592499997,1418,43659,0.864426750181391,2.0464163968215503e-05,1416.805137149172,43976.89324786434,4054,0.05394353622021607,0.05378259313846371,4062.3500419034763
104,242.3917472,1414,43542,0.8640504083213235,2.051012173189621e-05,1417.0843054202542,43926.38997485703,4059,0.054249271980865474,0.0538994528627035,4065.8816960745785
105,242.92623312499998,1413,43626,0.8638615542876957,2.0464348761938165e-05,1417.8358513216338,43876.645541234524,4077,0.05451702510180327,0.05402434250234647,4070.441731409467
106,243.46061369999998,1409,43302,0.8647030136247108,2.0640751763414193e-05,1418.2918752406351,43847.37787945282,4053,0.054574147662467126,0.054164534054230086,4076.895807379477
107,243.994888925,1417,43035,0.863747888775786,2.075419022480143e-05,1418.66395614847,43842.84894335008,4035,0.054334470008530145,0.05430823113384723,4084.9307119073264
108,244.52905879999997,1427,43277,0.8628771528607923,2.061833101220531e-05,1419.126367528116,43852.498856145394,4035,0.05377260727983145,0.054438090526023546,4093.33701782592
109,245.063123325,1428,43468,0.8633129275796555,2.05355120737311e-05,1419.7138100522957,43881.39133389121,4050,0.053844112657322946,0.05456924326068901,4103.204466692258
110,245.59708249999997,1429,43218,0.8623491049005171,2.0635791832791334e-05,1420.4284128745567,43936.86735826322,4072,0.05454039781406749,0.05469897497133707,4114.843303359
111,246.130936325,1427,42971,0.862505803534046,2.076126043553933e-05,1420.6583161566243,44030.36447031558,4076,0.05499657889374369,0.05482269377466085,4128.257310471279
112,246.66468479999997,1416,43064,0.8631762817630669,2.0725515793389044e-05,1420.5887109560535,44164.61847380377,4082,0.05525422510517519,0.054955766932966776,4144.525515866644
113,247.19832792499997,1411,43451,0.8629529675416884,2.0526949751229505e-05,1420.2827923622006,44341.30736822946,4102,0.055238021780558595,0.055096619318081845,4163.741307843812
114,247.7318657,1424,44062,0.8621360146885437,2.0219898088290815e-05,1420.0426283720765,44559.838252281195,4136,0.054836363615444694,0.05522056516525723,4184.7478765090145
115,248.265298125,1423,44168,0.8624878814902607,2.0177515065861754e-05,1420.2402772429452,44812.36838886411,4145,0.05492319600927569,0.05532476852005431,4207.158395433565
116,248.79862519999998,1415,44004,0.862427427307537,2.0250004163223766e-05,1419.920745656726,45087.798251375156,4152,0.05542426139474345,0.05542821072621163,4230.498788194442
117,249.33184692499998,1399,44285,0.8621956715984717,2.0104362066839332e-05,1419.5248363496069,45376.1466624377,4170,0.05570918728721179,0.05552305664359094,4254.223900881025
118,249.8649633,1408,44830,0.8614594306460737,1.9839238879970374e-05,1419.7522027678724,45694.30374413828,4206,0.05551019038615711,0.055605886837713205,4279.804570884877
119,250.397974325,1427,45236,0.861591555373828,1.966699891286786e-05,1419.7837323608417,46049.86373417203,4244,0.05540193593754876,0.05568845446947488,4307.571677727612
120,250.93087999999997,1431,45775,0.861950076569216,1.943780616473967e-05,1419.1741149289635,46445.46725860066,4292,0.0556115634373202,0.05576726301854933,4336.995560488263
