,x_(nm),baseline_dark,baseline_light,baseline_mirror,baseline_calibration,baseline_dark_smoothed,baseline_light_smoothed,raw_signal,calibrated_signal,calibrated_signal_smoothed,raw_signal_smoothed
0,186.23,1311,1308,0.3621226043733797,-0.12070753479112656,1290.6224328144406,4196.986637196428,1311,-0.0,,1544.3069934956725
1,186.775442325,1305,1295,1.18800459154587,-0.118800459154587,1296.1387024863152,3202.644730293365,1304,0.118800459154587,,1463.0388337111974
2,187.3207793,1308,1293,1.908567993433533,-0.12723786622890218,1301.315660468347,2332.6567709102865,1304,0.5089514649156087,,1392.318305074005
3,187.86601092499998,1306,1294,1.7279185264672412,-0.14399321053893677,1306.1639157162615,1582.7734579495573,1303,0.4319796316168103,,1331.7761351887955
4,188.41113719999998,1297,1295,1.043047789334166,-0.521523894667083,1310.6940771857842,948.7454903135413,1299,-1.043047789334166,,1281.0430516602703
5,188.956158125,1291,1286,0.840365554154959,-0.1680731108309918,1314.9167538326403,426.3235669046021,1301,-1.6807311083099181,,1239.7497820931303
6,189.50107369999998,1303,1285,0.8202728553565946,-0.04557071418647748,1318.8425546125557,11.258386625103412,1317,-0.6379899986106847,,1207.5270540920767
7,190.045883925,1322,1300,0.837733819880384,-0.03807880999456291,1322.4820884812557,-300.699351622593,1332,-0.3807880999456291,,1184.0055952618102
8,190.59058879999998,1330,1320,0.8116271105193998,-0.08116271105193998,1325.8459643944657,-513.7989489361198,1325,0.40581355525969987,,1168.8161332070317
9,191.135188325,1336,1330,0.8262856362484797,-0.13771427270807995,1328.9447913079114,-632.2897064131148,1325,1.5148569997888794,,1161.5893955324427
10,191.67968249999998,1334,1326,0.8012221689422371,-0.10015277111777963,1331.789178177318,-660.4209251512166,1333,0.10015277111777963,,1161.9561098427434
11,192.22407132499998,1331,1320,0.7775424502505143,-0.07068567729550129,1334.3897339584114,-602.4419062480583,1338,-0.49479974106850905,,1169.5470037426353
12,192.7683548,1322,1324,0.7753865851703869,0.38769329258519347,1336.7570676069167,-462.6019508012787,1338,6.2030926813630956,,1183.992804836819
13,193.312532925,1319,1319,0.7956261498651602,inf,1338.9017880785595,-245.15035990851175,1334,inf,,1204.924240729996
14,193.8566057,1330,1316,0.7908861747409445,-0.05649186962435317,1340.8345043290656,45.663565332605685,1327,0.1694756088730595,,1231.9720390268667
15,194.400573125,1345,1329,0.7942231778648126,-0.049638948616550785,1342.5658253141603,405.5905238244368,1329,0.7942231778648126,,1264.7669273321324
16,194.9444352,1363,1340,0.7947581770897779,-0.03455470335172948,1344.1063599895688,830.3812144693447,1337,0.8984222871449664,,1302.939633250494
17,195.488191925,1360,1348,0.7914877943554887,-0.06595731619629072,1345.466717311017,1315.7863361696955,1355,0.32978658098145364,,1346.1208843866525
18,196.0318433,1352,1349,0.7911116722494277,-0.2637038907498092,1346.6575062342301,1857.5565878278467,1369,-4.482966142746757,,1393.941408345309
19,196.575389325,1352,1338,0.7900325230816138,-0.056430894505829554,1347.6893357149338,2451.4426683461697,1361,-0.507878050552466,,1446.0319327311636
20,197.11883,1349,1342,0.798472358442206,-0.114067479777458,1348.5728147088537,3093.195276627025,1352,-0.342202439332374,,1502.0231851489184
21,197.662165325,1353,1360,0.7981102791346143,0.11401575416208776,1349.3185521717148,3778.565111572776,1357,0.456063016648351,,1561.5458932032739
22,198.2053953,1361,1363,0.8040599544843242,0.4020299772421621,1349.9371570592432,4503.302872085786,1358,-1.2060899317264864,,1624.2307844989314
23,198.74851992499998,1345,1343,0.8074165803696804,-0.4037082901848402,1350.439238327164,5263.159257068418,1343,0.8074165803696804,,1689.708586640591
24,199.2915392,1354,1350,0.8060625325032217,-0.20151563312580542,1350.8354049312027,6053.884965423043,1350,0.8060625325032217,,1757.6100272329545
25,199.83445312499998,1377,1378,0.8122546130835153,0.8122546130835153,1351.1362658270598,6871.230696051874,1373,-3.2490184523340613,inf,1827.565833880687
26,200.3772617,1364,2382,0.8144257223941842,0.000800025267577784,1352.259620829438,7598.9039615844895,1459,0.07600240041988948,inf,1889.7736528573332
27,200.919964925,1341,6555,0.8150182986479615,0.00015631344431299606,1352.8130874991248,8344.349928650545,1815,0.07409257260436013,inf,1952.2123717411116
28,201.4625628,1340,11415,0.8232603193402961,8.171318306107157e-05,1352.9600670456603,9106.922376497596,2198,0.07010991106639941,inf,2015.5238850256696
29,202.005055325,1348,13482,0.8194894939197722,6.753663210151411e-05,1353.3942105143685,9884.170015175692,2372,0.06915751127195045,inf,2080.63163378555
30,202.5474425,1345,14400,0.8269202298982968,6.334126617374928e-05,1353.858343337309,10675.055040884075,2476,0.07163897204251043,inf,2146.9801807515046
31,203.089724325,1344,15061,0.8298864771900701,6.050058155500985e-05,1353.51131395952,11481.199392964514,2531,0.0718141903057967,inf,2214.0650524360267
32,203.63190079999998,1344,15726,0.8293789756785952,5.7667847008663276e-05,1352.7651588937201,12302.998165303621,2573,0.07087378397364717,inf,2282.1952705610106
33,204.173971925,1346,16237,0.8303112569560028,5.57592678098182e-05,1352.6441595505864,13135.858592493347,2620,0.07103730718970838,-inf,2351.167206505199
34,204.71593769999998,1361,16627,0.832804584655424,5.455290086829713e-05,1352.9106208520884,13969.792248974794,2656,0.07064600662444478,-inf,2420.1872522593476
35,205.257798125,1364,16972,0.8371769300637781,5.363768132135944e-05,1353.467190649819,14799.392217263983,2680,0.07058718861890902,-inf,2489.051212937957
36,205.7995532,1360,17432,0.8381556767340916,5.215005455040391e-05,1353.9659335432025,15622.370721873358,2716,0.0707154739703477,-inf,2557.099526603045
37,206.34120292499998,1359,18075,0.840625124319978,5.028865304618198e-05,1354.1774672132747,16440.05551654593,2791,0.0720133511621326,-inf,2624.4913814581932
38,206.88274729999998,1353,18735,0.8415937915656597,4.8417546402350693e-05,1354.0044621621971,17247.60558563015,2841,0.07204530904669783,-inf,2691.097601304621
39,207.424186325,1345,19108,0.8431564976534377,4.746700994502267e-05,1353.359555142786,18034.87576162506,2837,0.07082077883797382,0.003447614897636166,2755.4656277604854
40,207.96552,1340,19414,0.844165982526256,4.67060961893469e-05,1352.839792520756,18801.952818863032,2842,0.07015255647639905,0.03202511519653928,2817.6184511539923
41,208.506748325,1335,19785,0.8476484869242688,4.594300742136958e-05,1352.9055244739145,19551.099232145316,2875,0.07075223142890916,0.08287878061997234,2877.8100976238998
42,209.0478713,1348,20244,0.8491768105118729,4.493950097967151e-05,1353.5559129311841,20279.96382703986,2932,0.07118416955179967,0.1429105448885874,2936.1248272893495
43,209.588888925,1355,20828,0.8502736512177026,4.3664235157279446e-05,1353.7437541053898,20980.07141724574,2970,0.0705177397790063,0.19111173795060007,2992.0623570182215
44,210.12980119999997,1347,21280,0.8513731200582484,4.271174033302806e-05,1353.4997395184228,21646.788285124956,3008,0.07094420069315961,0.08669941922011015,3045.6977054972344
45,210.670608125,1344,21723,0.8534308197221572,4.187795376231205e-05,1353.6673763844901,22269.666719517565,3045,0.07123439934969279,0.08568166155993738,3096.057487145742
46,211.2113097,1345,22157,0.8557212941711507,4.111672564727805e-05,1353.9100998889862,22846.34585154773,3063,0.07063853466202369,0.08740231648807484,3142.324197603509
47,211.751905925,1355,22389,0.8575135521308375,4.076797338265843e-05,1354.2605721533637,23372.75942829917,3086,0.07056936192538174,0.11322093011369555,3184.027633694926
48,212.29239679999998,1372,22697,0.8580327959771828,4.023600450068853e-05,1354.884935106092,23836.889465219592,3130,0.07073489591221044,0.08808767197139361,3220.207977530573
49,212.83278232499998,1369,23177,0.8587529108532552,3.937788476032902e-05,1355.1683616842702,24242.56667195133,3151,0.07017139064290631,0.12126286313711386,3251.2493827719145
50,213.37306249999997,1360,23679,0.8598387128136875,3.8524965850337716e-05,1355.3557951482221,24591.706743074115,3174,0.06988428805251262,0.1592411761427438,3277.6815329904916
51,213.91323732499998,1351,24236,0.8611437003932625,3.762917633354872e-05,1355.5729008584308,24877.833473011367,3228,0.07062996397807095,0.07077174009225612,3298.423407098625
52,214.45330679999998,1360,24866,0.8624756676121401,3.66917241390343e-05,1355.6433667806486,25135.77548755303,3307,0.07143878689869977,0.0708737669350589,3315.948107544841
53,214.993270925,1374,25467,0.8630074298534857,3.581984102658389e-05,1354.482570386619,25470.744614826574,3369,0.07146058284803486,0.07093909722894866,3339.3922172641996
54,215.5331297,1359,26088,0.8629495266956824,3.489625648815894e-05,1352.8922512400927,25921.041767649956,3391,0.07090919318393896,0.0708895888122138,3371.2927586128144
55,216.07288312499998,1341,26672,0.8648478670709356,3.414187624140127e-05,1352.3915150965788,26414.542028131502,3417,0.07087853507714904,0.07079421847581732,3407.2260300345897
56,216.61253119999998,1352,27094,0.8650803831098881,3.360579531931816e-05,1352.330675666467,26913.921289269914,3456,0.07070659335184541,0.07077023423993618,3445.125823914405
57,217.152073925,1370,27381,0.8652291434094919,3.326397075889015e-05,1352.3553874379681,27420.061111236417,3491,0.07055288197960602,0.07074786096982726,3483.55142811835
58,217.69151129999997,1364,27700,0.8680312398394996,3.295987393072219e-05,1352.0490158327223,27939.397064485634,3525,0.07122628756429066,0.0706893156146801,3522.123898615983
59,218.230843325,1356,28248,0.868212549145114,3.228516098263848e-05,1351.730820630113,28471.50336360905,3554,0.07096278383983938,0.07062080916031153,3561.2514666243173
60,218.77006999999998,1349,28881,0.868144571802742,3.1532201503804374e-05,1351.9627171623106,29011.714444267713,3585,0.07050600256250658,0.07053019117500108,3600.943464178055
61,219.30919132499997,1345,29488,0.8681762475955156,3.0848745606208136e-05,1352.147704364739,29553.83820698034,3638,0.07073617367503525,0.07043123188551391,3640.4298398604033
62,219.84820729999998,1347,29934,0.868951283960652,3.039672872146962e-05,1352.2386237513613,30098.723980157527,3675,0.07076358446358127,0.0703297177975633,3679.9725928106386
63,220.38711792499998,1345,30426,0.8691522224557424,2.9887288004392643e-05,1352.2826338082145,30654.820698089967,3700,0.07038456325034467,0.07026275502626776,3720.966681011956
64,220.9259232,1351,31148,0.8692686507714266,2.917302583385665e-05,1352.0904663752035,31229.209834876747,3760,0.07027781923376067,0.07019103961573954,3762.9565562073167
65,221.464623125,1352,31771,0.8701622824311823,2.8605880615114973e-05,1351.99823325554,31813.7094158412,3807,0.07022743691010726,0.07007211540700108,3804.497882171663
66,222.0032177,1343,32204,0.86932404321908,2.816901731049156e-05,1351.8423520351275,32399.20804548172,3843,0.07042254327622889,0.0699135388395636,3844.7884663298537
67,222.54170692499997,1339,32557,0.8705973257298546,2.788767139886779e-05,1351.356066955058,32981.21413848495,3870,0.07058369631053438,0.06976567209185686,3884.553240163916
68,223.0800908,1352,33038,0.8704844215444587,2.7472209226297377e-05,1350.7362114656923,33562.88926136428,3914,0.07038380003777388,0.06964040457221769,3924.99297832333
69,223.61836932499997,1360,33521,0.8703398065724872,2.706196345177349e-05,1349.7678996126494,34145.90294230835,3942,0.06987398963247915,0.06949995556729036,3965.0767854310775
70,224.1565425,1346,34213,0.8697053263836744,2.646135413587107e-05,1348.6616910915052,34727.97519762555,3967,0.06935520919011808,0.06935730975351179,4004.551949081442
71,224.69461032499999,1338,34880,0.8700422735223692,2.5938890749578713e-05,1347.5616888264478,35307.83956601441,4003,0.06912714384762726,0.06921479205146315,4043.6297764387996
72,225.23257279999999,1335,35577,0.8700397124616915,2.540855418672074e-05,1346.1449862963796,35881.109062492236,4057,0.06916208449625386,0.06906518292063236,4081.879816077296
73,225.77042992499997,1331,36571,0.8700678242154535,2.46897793477711e-05,1344.8650026047897,36441.79469523588,4132,0.06915607195310684,0.0689153046679182,4119.272101293269
74,226.30818169999998,1322,37310,0.8699872642519537,2.417437101956079e-05,1344.273754784907,36991.10999116557,4166,0.06875191117963089,0.06875659922817759,4155.917801082617
75,226.84582812499997,1329,37860,0.8700242014773532,2.3816052160558242e-05,1343.5354368162102,37536.17058143941,4187,0.06806627707487546,0.06856927660882474,4191.157693265905
76,227.3833692,1352,38489,0.8696880407569096,2.3418370917330685e-05,1342.2350902624946,38071.76656322834,4250,0.06786643891842432,0.0683772389254715,4225.149018097724
77,227.92080492499997,1348,38825,0.87010037851645,2.3216916469206446e-05,1340.8036422115758,38593.15968651538,4291,0.06832738516887457,0.0682146831349183,4258.894493646434
78,228.45813529999998,1369,39048,0.8693067287349536,2.3071385353511335e-05,1339.9539060907123,39103.785680309105,4321,0.06810672956356546,0.06808424981058482,4293.26911141807
79,228.99536032499998,1386,39346,0.8691277262341458,2.2895883199002787e-05,1339.804978595186,39598.24512446412,4351,0.06788629368504326,0.06798019326383786,4328.189019003745
80,229.53248,1360,39834,0.86926662631248,2.2593611953851432e-05,1339.1791433554295,40070.728261115,4364,0.0678712103093697,0.06788036162326946,4361.461528007346
81,230.069494325,1341,40655,0.8686441253792921,2.2095032949567385e-05,1338.0591179867918,40530.32696097229,4393,0.06743404056207966,0.06778684745846031,4393.5985186526605
82,230.60640329999998,1333,41284,0.868302707705708,2.1734192077938176e-05,1337.760832634915,40965.11150875366,4429,0.0672890586732966,0.0677001069121214,4424.841446012282
83,231.143206925,1340,41733,0.8687016218294412,2.1506241720828887e-05,1338.0782124170169,41355.47117714931,4467,0.06725001786103194,0.06761755591637265,4453.305918593767
84,231.67990519999998,1339,42031,0.8683284847277679,2.1339046611809888e-05,1338.1186663344326,41702.81931640501,4497,0.06738870920009563,0.06756429293286739,4478.965276676623
85,232.216498125,1333,42313,0.8683608504247778,2.1189869458876962e-05,1337.7143310153992,42023.05723798873,4514,0.06740497474868762,0.06754265780911332,4503.553738476437
86,232.75298569999998,1337,42700,0.868249886800152,2.099097954210652e-05,1336.9887426668524,42322.89458424798,4541,0.06725509845290929,0.06753199659480864,4527.019434188684
87,233.289367925,1336,43135,0.867778574191436,2.0760749639738655e-05,1336.195678271283,42594.615846337714,4568,0.06709874283563533,0.06755092287907342,4549.564973158987
88,233.8256448,1336,43451,0.8676471171202086,2.0601854852670274e-05,1335.721194138007,42824.931255520256,4588,0.06699723198088373,0.0675958112048627,4570.18500985291
89,234.36181632499998,1337,43514,0.8677489292852631,2.057398414503789e-05,1335.2716482819287,43005.898298941385,4600,0.06713291026525864,0.06765312670005953,4587.46768896229
90,234.89788249999998,1322,43481,0.8672589311593729,2.05711456903478e-05,1334.7885342816116,43159.655190377205,4599,0.06741164442726974,0.06773088058679241,4603.598269496389
91,235.433843325,1312,43575,0.8668004592010585,2.0509676530323417e-05,1334.38073342542,43295.68076287036,4623,0.06790753899190083,0.06781865843119007,4618.806609436139
92,235.9696988,1309,43798,0.8665578153052318,2.0394874327596127e-05,1333.7925660830117,43398.44141430073,4645,0.06803730075686068,0.06791986806193627,4631.764819135113
93,236.505448925,1319,43934,0.8666098942893835,2.0335794773891435e-05,1332.9436906837952,43459.06500713409,4648,0.06769786080228458,0.06804221734020173,4641.79639402922
94,237.04109369999998,1335,44087,0.8664654382940954,2.026724921159467e-05,1332.3163152053019,43485.817051348015,4665,0.06748993987461026,0.06817958914022046,4650.072119413714
95,237.576633125,1330,44127,0.8658853313998153,2.0232383844657694e-05,1332.2488165077098,43478.58354662536,4689,0.0679605773342052,0.06832700905324086,4656.799904867518
96,238.11206719999998,1323,44116,0.8659634438688039,2.023610038718491e-05,1332.0221975582433,43436.86443633974,4703,0.068398019308685,0.06848557248525278,4661.33559084002
97,238.64739592499998,1331,44162,0.8653764850454776,2.0204442694438086e-05,1331.4617318625305,43370.44666923289,4707,0.06821019853642298,0.06866106859008589,4664.278737910169
98,239.1826193,1335,44104,0.865240351462597,2.023054902996556e-05,1331.115449953541,43294.70971029839,4709,0.0682578724271038,0.06885362020051368,4667.610659357993
99,239.71773732499997,1330,43946,0.8654717432609225,2.0308610457596266e-05,1330.721126186298,43229.66656096318,4724,0.06892742389308172,0.06905897773810069,4672.570205440577
100,240.25275,1335,43582,0.8654328986505,2.0485073464399838e-05,1329.835624815939,43168.22439919281,4735,0.06964924977895945,0.06926730125597778,4677.56807628703
101,240.787657325,1349,43292,0.8649750843904328,2.062263272513728e-05,1329.062470271102,43104.51835828588,4736,0.06984885704003996,0.06946992536622315,4682.36107273089
102,241.3224593,1348,43126,0.8650023747478218,2.070473394484709e-05,1329.4219121610654,43052.29035765168,4729,0.07000270546752801,0.06967121974407611,4689.098144918255
103,241.85715592499997,1340,42844,0.864426750181391,2.0827552770368906e-05,1330.0371695847896,43002.10414731848,4717,0.0703346457055358,0.06988893598663451,4696.968243901244
104,242.3917472,1334,42652,0.8640504083213235,2.0912203115381274e-05,1330.8553761126839,42945.481369905625,4690,0.07018135365521956,0.07010214493335906,4704.494733742463
105,242.92623312499998,1339,42645,0.8638615542876957,2.0913706345027252e-05,1332.2622029943798,42892.02831321126,4693,0.07014457108122141,0.07030410835892639,4712.431017690004
106,243.46061369999998,1339,42244,0.8647030136247108,2.1139298707363666e-05,1333.3485696165003,42858.21069559818,4676,0.07054183978647255,0.07050253060285327,4721.490996398469
107,243.994888925,1321,42001,0.863747888775786,2.1232740628706638e-05,1333.6994042899923,42848.025345986636,4657,0.07083242273736534,0.07069785059448658,4731.8526580442585
108,244.52905879999997,1318,42242,0.8628771528607923,2.1084868362349532e-05,1333.9340415411189,42854.78599741701,4698,0.07126685506474142,0.07087391045513837,4742.639312328614
109,245.063123325,1323,42457,0.8633129275796555,2.098781853405104e-05,1334.4482774241515,42879.92851480133,4745,0.07182031502352265,0.07102735508688504,4753.943758635439
110,245.59708249999997,1332,42344,0.8623491049005171,2.1026750826599948e-05,1334.7204919703474,42929.7070148806,4728,0.07140684580713343,0.07118885836332961,4767.622732111621
111,246.130936325,1338,42057,0.862505803534046,2.1181900428155064e-05,1334.954019343561,43017.46612607225,4708,0.07138300444288256,0.07134336333859498,4784.071938209154
112,246.66468479999997,1338,41991,0.8631762817630669,2.123278187988751e-05,1335.4198736097958,43147.38594305565,4700,0.07138461268018181,0.0714781240358421,4803.140048472127
113,247.19832792499997,1330,42239,0.8629529675416884,2.1094452749802938e-05,1335.8556705700894,43321.905048811146,4711,0.07132034474708374,0.07158181020810832,4824.190559242474
114,247.7318657,1327,42887,0.8621360146885437,2.074436993957035e-05,1336.2139119798605,43538.081496748804,4762,0.07125691074242416,0.0716556478170171,4846.941244422205
115,248.265298125,1335,43125,0.8624878814902607,2.0638618843988052e-05,1336.7623049219433,43787.719382091615,4781,0.07112068053638283,0.07171029688504316,4871.593014564223
116,248.79862519999998,1336,42993,0.862427427307537,2.070306136561771e-05,1337.231511472488,44060.60907381736,4784,0.07138415558864987,0.07174676531149135,4897.11155405549
117,249.33184692499998,1335,43224,0.8621956715984717,2.0582865945677188e-05,1337.3763618654755,44348.11026297226,4826,0.07185478501635906,0.07176574009898225,4922.649958096352
118,249.8649633,1341,43741,0.8614594306460737,2.031743940203004e-05,1337.0429681306227,44668.257038663665,4891,0.07212690987720664,0.07176246087578067,4949.157330856776
119,250.397974325,1350,44197,0.861591555373828,2.0108561985059117e-05,1336.5336700717764,45027.958594757794,4944,0.07227017177430246,0.07173138286568502,4977.17780697175
