,x_(nm),baseline_dark,baseline_light,baseline_mirror,baseline_calibration,baseline_dark_smoothed,baseline_light_smoothed,raw_signal,calibrated_signal,calibrated_signal_smoothed,raw_signal_smoothed
0,186.23,1189,1189,0.3621226043733797,inf,1180.2283186456311,3963.1108644715873,1140,-inf,,1332.5357295312906
1,186.775442325,1189,1173,1.18800459154587,-0.07425028697161687,1183.9697759058456,3008.423428858733,1133,4.158016070410545,,1266.1730726543162
2,187.3207793,1189,1170,1.908567993433533,-0.10045094702281752,1187.545058403944,2173.175171878145,1133,5.625253033277781,,1208.6072697874508
3,187.86601092499998,1194,1175,1.7279185264672412,-0.09094308034038112,1190.9573657684318,1453.2843045394325,1138,5.092812499061343,,1159.5315805567514
4,188.41113719999998,1194,1168,1.043047789334166,-0.0401172226666987,1194.2098976278132,844.6690378522048,1136,2.3267989146685246,,1118.6392645882738
5,188.956158125,1186,1171,0.840365554154959,-0.05602437027699726,1197.3058536105937,343.2475828260708,1144,2.353023551633885,,1085.6235815080752
6,189.50107369999998,1185,1177,0.8202728553565946,-0.10253410691957432,1200.2484333452774,-55.06184952935837,1151,3.486159635265527,,1060.1777909422115
7,190.045883925,1205,1196,0.837733819880384,-0.09308153554226489,1203.0408364603697,-354.341048204476,1163,3.9094244927751256,,1041.9951525167398
8,190.59058879999998,1212,1207,0.8116271105193998,-0.16232542210387996,1205.6862625843753,-558.67180218967,1165,7.629294838882358,,1030.768925857716
9,191.135188325,1210,1211,0.8262856362484797,0.8262856362484797,1208.187911345799,-672.1359004753326,1166,-36.35656799493311,,1026.1923705911972
10,191.67968249999998,1215,1222,0.8012221689422371,0.11446030984889101,1210.5489823731457,-698.8151320518523,1179,-4.120571154560077,,1027.9587463432397
11,192.22407132499998,1211,1215,0.7775424502505143,0.19438561256262857,1212.7726752949202,-642.7912859096227,1170,-7.969810115067771,,1035.7613127399
12,192.7683548,1202,1204,0.7753865851703869,0.38769329258519347,1214.8621897396272,-508.14615103903134,1160,-16.283118288578127,,1049.2933294072345
13,193.312532925,1199,1199,0.7956261498651602,inf,1216.8207253357718,-298.96151643047097,1155,-inf,,1068.2480559713
14,193.8566057,1201,1200,0.7908861747409445,-0.7908861747409445,1218.6514817118589,-19.31917107433219,1161,31.635446989637778,,1092.3187520581525
15,194.400573125,1205,1203,0.7942231778648126,-0.3971115889324063,1220.357658496393,326.69909603899714,1179,10.324901312242563,,1121.198677293849
16,194.9444352,1223,1213,0.7947581770897779,-0.0794758177089778,1221.9424553178792,735.0114959191246,1197,2.0663712604334226,,1154.581091304446
17,195.488191925,1246,1232,0.7914877943554887,-0.05653484245396347,1223.4090718048224,1201.5362395756579,1208,2.148324013250612,,1192.159253716
18,196.0318433,1256,1237,0.7911116722494277,-0.0416374564341804,1224.7607075857272,1722.1915380182095,1215,1.7071357138013965,,1233.6264241545673
19,196.575389325,1242,1216,0.7900325230816138,-0.03038586627236976,1226.0005622890988,2292.895602256388,1205,1.124277052077681,,1278.6758622462046
20,197.11883,1226,1209,0.798472358442206,-0.04696896226130624,1227.1318355434416,2909.5666432998,1191,1.6439136791457183,,1327.000827616968
21,197.662165325,1234,1224,0.7981102791346143,-0.07981102791346142,1228.1577269772606,3568.122872158062,1199,2.79338597697115,,1378.294579892915
22,198.2053953,1229,1242,0.8040599544843242,0.0618507657295634,1229.0814362190608,4264.4824998407785,1207,-1.3607168460503947,,1432.250378700101
23,198.74851992499998,1223,1241,0.8074165803696804,0.044856476687204466,1229.906162897347,4994.563737357552,1207,-0.7177036269952715,,1488.5614836645834
24,199.2915392,1235,1240,0.8060625325032217,0.16121250650064434,1230.6351066406241,5754.284795718009,1203,-5.158800208020619,,1546.9211544124182
25,199.83445312499998,1255,1255,0.8122546130835153,inf,1231.2714670773735,6539.563885931606,1213,-inf,,1607.0226505696312
26,200.3772617,1243,2227,0.8144257223941842,0.0008276684170672603,1231.9643027021893,7239.187818523497,1290,0.03890041560216124,-inf,1660.085347346454
27,200.919964925,1214,6278,0.8150182986479615,0.000160943581881509,1232.353937801512,7954.532764048864,1604,0.06276799693378851,-inf,1713.8101882262008
28,201.4625628,1208,10932,0.8232603193402961,8.46627230913509e-05,1232.410881333642,8686.020113705694,1954,0.06315839142614776,-inf,1768.6439556954517
29,202.005055325,1218,12886,0.8194894939197722,7.023392988685055e-05,1232.7569140863654,9434.64504292265,2099,0.06187609223031533,-inf,1825.430542028097
30,202.5474425,1228,13754,0.8269202298982968,6.601630447854837e-05,1233.0963555233177,10196.155179052557,2170,0.06218735881879257,-inf,1883.3224082085305
31,203.089724325,1233,14394,0.8298864771900701,6.305649093458477e-05,1232.8183197807189,10968.09726154592,2213,0.06179536111589308,-inf,1941.7479218101964
32,203.63190079999998,1232,15030,0.8293789756785952,6.010863717050263e-05,1232.1638768714797,11755.129244150265,2241,0.06064961490503715,-inf,2000.5684613467645
33,204.173971925,1228,15541,0.8303112569560028,5.801098700174686e-05,1232.3401889057275,12556.095540102591,2286,0.061375624247848176,,2060.0867743323347
34,204.71593769999998,1234,15963,0.832804584655424,5.6541828002948194e-05,1232.9117986817132,13359.941153819764,2321,0.061460967039204686,,2120.187003103087
35,205.257798125,1247,16292,0.8371769300637781,5.564486075531925e-05,1233.3267571179179,14161.034360913904,2347,0.06120934683085118,,2180.071689052938
36,205.7995532,1251,16664,0.8381556767340916,5.437978827834242e-05,1233.6846814197143,14953.504835896336,2373,0.06101412244830019,,2239.6574554349613
37,206.34120292499998,1249,17236,0.840625124319978,5.258179297679227e-05,1233.7637545584034,15737.419443248698,2407,0.06088971626712545,,2298.1612947065178
38,206.88274729999998,1240,17906,0.8415937915656597,5.049764739983558e-05,1233.172959749914,16513.20786427747,2447,0.06095066041160154,,2355.6190627193823
39,207.424186325,1230,18310,0.8431564976534377,4.9365134523035e-05,1231.890846904776,17270.52904935526,2466,0.061015306270471255,-inf,2410.8084894334625
40,207.96552,1217,18614,0.844165982526256,4.8523652499066276e-05,1230.6588597702998,18006.086525175764,2488,0.061673562326313235,-inf,2463.8619447778638
41,208.506748325,1220,18983,0.8476484869242688,4.771989455183633e-05,1229.7213753425663,18723.231964483548,2519,0.06198814302283539,-inf,2516.578201091709
42,209.0478713,1237,19390,0.8491768105118729,4.677886908565377e-05,1229.2593716731742,19419.237015560564,2558,0.06179488606214863,-inf,2568.4586060838938
43,209.588888925,1233,19920,0.8502736512177026,4.5500810789195834e-05,1229.5651770141783,20088.3653989894,2609,0.06260911564593347,-inf,2617.822736641776
44,210.12980119999997,1214,20356,0.8513731200582484,4.447670672125422e-05,1230.4559106661297,20727.656617363533,2635,0.06320140025090225,-inf,2664.4789462954486
45,210.670608125,1217,20810,0.8534308197221572,4.355794517032395e-05,1231.2172189630332,21322.663412534417,2651,0.06246209337424454,inf,2707.8708238011664
46,211.2113097,1222,21207,0.8557212941711507,4.2818178342314274e-05,1231.4616639108237,21871.230129787346,2683,0.06255735855812115,inf,2747.7928378898205
47,211.751905925,1227,21423,0.8575135521308375,4.2459573783463926e-05,1231.914630002921,22371.656889170332,2696,0.062373113887908505,inf,2784.1782599831854
48,212.29239679999998,1235,21762,0.8580327959771828,4.180020441258746e-05,1232.5294344152521,22813.517429612915,2728,0.06240770518799308,inf,2816.6541484517797
49,212.83278232499998,1233,22218,0.8587529108532552,4.092222591628569e-05,1233.025617794264,23201.829192053734,2770,0.0628974612333311,inf,2845.4067362793626
50,213.37306249999997,1236,22689,0.8598387128136875,4.00801152665682e-05,1233.7936306597876,23538.323586037735,2814,0.06324642189064461,inf,2869.7831660965726
51,213.91323732499998,1231,23202,0.8611437003932625,3.9194561030142575e-05,1234.5023896350756,23813.916849758312,2860,0.06384793991810225,0.0634520697368866,2888.5611452127464
52,214.45330679999998,1237,23849,0.8624756676121401,3.8142387564662134e-05,1234.9122063919672,24061.375070782567,2915,0.06400292633350306,0.06287892744907986,2904.4382432217612
53,214.993270925,1245,24440,0.8630074298534857,3.720661478135312e-05,1234.2992366757787,24385.334956623694,2957,0.06369772450567654,0.06293125915548173,2925.5355274184585
54,215.5331297,1237,24933,0.8629495266956824,3.641751885110071e-05,1233.0512355885512,24820.64413689957,2967,0.06300230761240423,0.06300573123728101,2954.96475571355
55,216.07288312499998,1233,25477,0.8648478670709356,3.567265579404948e-05,1232.919771682234,25295.765317447247,2988,0.06260551091855684,0.06305294164095733,2988.646583161509
56,216.61253119999998,1241,26035,0.8650803831098881,3.489071481446673e-05,1234.07812181474,25777.167002649618,3031,0.06245437951789545,0.06309811399975152,3023.580216992399
57,217.152073925,1248,26332,0.8652291434094919,3.449326835470786e-05,1235.6905932183959,26266.822374232204,3073,0.06295021474734185,0.06313239263449215,3059.467847516307
58,217.69151129999997,1236,26540,0.8680312398394996,3.4304111596565744e-05,1236.9800221975345,26768.56549412166,3104,0.06408008046238481,0.06312065305153342,3095.2309452082127
59,218.230843325,1226,26987,0.868212549145114,3.3702594974772483e-05,1238.0915989036887,27283.723663049605,3120,0.06383271488221909,0.06310795466637473,3131.4725588347947
60,218.77006999999998,1225,27517,0.868144571802742,3.301934321477035e-05,1239.1549751976024,27809.013159980444,3152,0.06362827437486246,0.06309041448299618,3168.354866474831
61,219.30919132499997,1228,28168,0.8681762475955156,3.2226289814235916e-05,1240.4019796597647,28335.600896962012,3192,0.06329243319515934,0.06306027142242616,3205.29126367522
62,219.84820729999998,1230,28709,0.868951283960652,3.162237650426333e-05,1242.078869283539,28862.833699516992,3229,0.0632131306320224,0.06300825446643939,3242.118462479269
63,220.38711792499998,1240,29111,0.8691522224557424,3.11848237399355e-05,1243.8551722575583,29399.789236448734,3252,0.06274386536475023,0.06293635496564061,3279.219461369391
64,220.9259232,1258,29756,0.8692686507714266,3.050279496004725e-05,1245.4106321773752,29954.75537384708,3312,0.06265274084793705,0.062849917889121,3317.0844866247744
65,221.464623125,1257,30428,0.8701622824311823,2.9829703555969365e-05,1246.722643774467,30521.107273097336,3374,0.06314948242798715,0.06276223846151698,3355.7515459013152
66,222.0032177,1249,30874,0.86932404321908,2.934427150106599e-05,1247.2537996330368,31090.592697455744,3379,0.06250329829727055,0.06269884624551499,3394.848671544024
67,222.54170692499997,1250,31276,0.8705973257298546,2.8994782046554804e-05,1247.6420983487499,31659.198758748178,3389,0.062019838797580724,0.06263007835712636,3433.3983102674374
68,223.0800908,1250,31738,0.8704844215444587,2.855170629573795e-05,1248.5457881265474,32228.58574373084,3441,0.06255678849396185,0.06253739119764676,3471.7480803641542
69,223.61836932499997,1246,32139,0.8703398065724872,2.817271895162293e-05,1249.0817006047462,32800.27321117063,3490,0.06321958132744186,0.06246741600466003,3510.5873066206946
70,224.1565425,1241,32876,0.8697053263836744,2.7491870598504012e-05,1248.895580873835,33370.666221204825,3532,0.0629838755411727,0.062417792451806696,3549.259688781104
71,224.69461032499999,1244,33597,0.8700422735223692,2.6892166832206262e-05,1248.4467145348467,33939.54644499243,3564,0.06238982705071853,0.06234638300022878,3587.1852816597648
72,225.23257279999999,1246,34288,0.8700397124616915,2.6331327173345788e-05,1247.7553511970586,34503.83215927814,3609,0.062220926110616095,0.062272695341351,3624.432399374774
73,225.77042992499997,1236,35246,0.8700678242154535,2.5582705798748998e-05,1247.0985752791444,35054.66028675554,3659,0.06198689615036882,0.06219406887226399,3660.752361321817
74,226.30818169999998,1232,35915,0.8699872642519537,2.5083968060777722e-05,1246.4598065641112,35593.06532424223,3684,0.061505889685026974,0.062131473421291585,3697.1453487054487
75,226.84582812499997,1233,36369,0.8700242014773532,2.476161775607221e-05,1245.448435978141,36126.720627873096,3713,0.06140881203505908,0.062097951165381395,3734.0669550838493
76,227.3833692,1259,36983,0.8696880407569096,2.4344643398189164e-05,1244.235452671611,36650.634351853245,3789,0.061591947797418584,0.0620928318430637,3771.252938911341
77,227.92080492499997,1265,37364,0.87010037851645,2.410317123788609e-05,1242.9234184239497,37158.94579718609,3842,0.062113872280032456,0.0621096902869149,3807.8970984619536
78,228.45813529999998,1276,37558,0.8693067287349536,2.395972462198759e-05,1241.8805861967192,37654.83014337739,3885,0.06251092153876561,0.062131130386428805,3843.958957167699
79,228.99536032499998,1296,37832,0.8691277262341458,2.378825613734798e-05,1241.1311920994576,38131.871186209595,3913,0.06225386631143967,0.062164600801297,3879.6357335386247
80,229.53248,1272,38346,0.86926662631248,2.344679900502994e-05,1240.4344152755202,38581.81673424012,3910,0.06185265577526898,0.062197311714803895,3913.7965525832224
81,230.069494325,1238,39116,0.8686441253792921,2.2932681909797038e-05,1239.4679607691896,39014.766608529455,3945,0.06207876992982058,0.06223875162701837,3947.215882579371
82,230.60640329999998,1224,39674,0.868302707705708,2.258264519390658e-05,1238.6652245803743,39425.43201431441,3965,0.06189903047649793,0.062291167803058,3979.778296224074
83,231.143206925,1230,40128,0.8687016218294412,2.2332809445972576e-05,1238.1244422296982,39790.3246506142,4006,0.06199587902201987,0.06237423906826192,4010.360936827484
84,231.67990519999998,1228,40403,0.8683284847277679,2.216537293497812e-05,1237.2863032005018,40107.13357040853,4045,0.062439855557833365,0.06250169971007428,4038.501755419071
85,232.216498125,1232,40652,0.8683608504247778,2.2028433547051697e-05,1235.9151056648839,40392.307775939786,4069,0.06249466597298566,0.06264016506307221,4064.3644250152115
86,232.75298569999998,1238,41055,0.868249886800152,2.1806009664217595e-05,1234.1099005639758,40648.630750412594,4102,0.06245241167831919,0.06279744385032665,4088.724614373973
87,233.289367925,1228,41483,0.867778574191436,2.15570382360312e-05,1232.2381027882616,40872.01596865083,4139,0.06275253830508683,0.06297626288425595,4111.77233912425
88,233.8256448,1222,41776,0.8676471171202086,2.1394859129067626e-05,1230.5942829961937,41052.50442818558,4170,0.06307204471249137,0.06317917462424585,4132.859181408334
89,234.36181632499998,1218,41856,0.8677489292852631,2.135314063894048e-05,1229.4579492173996,41179.815329904755,4189,0.06344018083829217,0.06337867664120075,4150.358830324503
90,234.89788249999998,1211,41820,0.8672589311593729,2.135632325739055e-05,1228.5884164986514,41276.16118145292,4179,0.06338556742793516,0.06359103564339728,4166.499127952988
91,235.433843325,1217,41852,0.8668004592010585,2.133137588780752e-05,1227.6937642981486,41351.80679063999,4174,0.06307687850024683,0.06384593693832802,4182.8204715847805
92,235.9696988,1217,41989,0.8665578153052318,2.1253748045355434e-05,1226.59253890233,41390.3588982755,4206,0.0635274529075674,0.06410026270440995,4196.4294094995685
93,236.505448925,1210,42024,0.8666098942893835,2.1233152699793783e-05,1225.3336881922346,41386.0834673484,4234,0.0642090537641764,0.06434726288077633,4206.371786450349
94,237.04109369999998,1213,42055,0.8664654382940954,2.121505896611565e-05,1224.1111010441678,41346.15058098632,4251,0.06445134913905935,0.06461760866190991,4214.631860291205
95,237.576633125,1211,42040,0.8658853313998153,2.1207605657738746e-05,1222.9800901492438,41266.91517361583,4263,0.06472561246741865,0.06491876780159608,4221.273505628586
96,238.11206719999998,1214,41962,0.8659634438688039,2.1251679686581032e-05,1221.955083920337,41154.179233956944,4279,0.06513639823937087,0.0652274772427987,4225.879544270458
97,238.64739592499998,1220,41832,0.8653764850454776,2.130839370248886e-05,1220.9728419669523,41019.30274751332,4305,0.06573639457217813,0.06554518834425178,4229.287073319814
98,239.1826193,1218,41697,0.865240351462597,2.137504265082134e-05,1220.4744841332524,40874.84595347494,4316,0.06621988213224451,0.0658641927394267,4232.674443362169
99,239.71773732499997,1221,41518,0.8654717432609225,2.147732444750037e-05,1219.7301411130254,40738.9585721073,4304,0.06621459127164364,0.06617688938253516,4236.444200321557
100,240.25275,1229,41060,0.8654328986505,2.1727621667808994e-05,1218.9582550000898,40605.73211171183,4278,0.06624751846514962,0.06646734175450565,4239.436159369327
101,240.787657325,1238,40647,0.8649750843904328,2.1948668689650405e-05,1218.5217785227064,40470.13300414428,4255,0.06621913343667528,0.06675095626865286,4242.307232326812
102,241.3224593,1236,40365,0.8650023747478218,2.2106426812538574e-05,1219.0654827968688,40348.5178599734,4257,0.06678351540067903,0.06702693439159509,4246.788149221871
103,241.85715592499997,1232,40031,0.864426750181391,2.2279614169988685e-05,1220.0040318013764,40233.69847561589,4270,0.06768546784842562,0.0673035102823455,4252.125144397301
104,242.3917472,1230,39800,0.8640504083213235,2.2402136591167318e-05,1220.8485129900782,40114.72703798423,4263,0.06794568028101047,0.0675967462099979,4258.073931459294
105,242.92623312499998,1219,39707,0.8638615542876957,2.244495828018332e-05,1222.2368796575,40002.55869895051,4256,0.06816533829691675,0.0678737014730471,4264.544406441741
106,243.46061369999998,1221,39258,0.8647030136247108,2.2733207498612162e-05,1223.667489637341,39916.13051258163,4223,0.06824508891083371,0.06812772857942784,4272.101904912826
107,243.994888925,1221,38928,0.863747888775786,2.2906831325106374e-05,1224.156356882352,39858.79510294608,4208,0.06842270516809273,0.0683789455603491,4280.974042447086
108,244.52905879999997,1218,39102,0.8628771528607923,2.2776822744715242e-05,1224.2833133253068,39821.11128224799,4230,0.06860379010708231,0.06859813046229589,4289.604702258181
109,245.063123325,1214,39248,0.8633129275796555,2.269845211073396e-05,1224.824208928831,39808.24179483038,4260,0.06913948512929564,0.06879649742748395,4299.527916827026
110,245.59708249999997,1218,39036,0.8623491049005171,2.280260999789828e-05,1225.0807492808208,39828.96745113063,4269,0.06957076310358765,0.06899031029305587,4311.666651566205
111,246.130936325,1228,38769,0.862505803534046,2.2975035388882715e-05,1225.3054202812964,39896.25180638217,4264,0.06975220744064792,0.06916758981022593,4326.740152664755
112,246.66468479999997,1231,38764,0.8631762817630669,2.299779611976306e-05,1225.942490203605,40017.67224625622,4258,0.06961432885452279,0.0693159906002886,4345.007497338475
113,247.19832792499997,1223,39049,0.8629529675416884,2.2813751587312653e-05,1226.5047452943204,40191.942331648876,4271,0.06953631483812897,0.06944964651331037,4366.710185961093
114,247.7318657,1213,39642,0.8621360146885437,2.2434515982423267e-05,1226.6814423882527,40415.70298307925,4330,0.06992838631721332,0.06956920079986667,4391.274796711053
115,248.265298125,1222,39823,0.8624878814902607,2.234366678299165e-05,1226.7785000792535,40684.49269519051,4359,0.07009208269824481,0.06966761331486673,4418.231058461036
116,248.79862519999998,1225,39745,0.862427427307537,2.238908170580314e-05,1226.7126548732465,40984.46710004678,4343,0.06980915675869419,0.06974501274644414,4446.626990418724
117,249.33184692499998,1227,40057,0.8621956715984717,2.2204369600784744e-05,1226.357176832974,41305.74925819304,4368,0.06974392491606488,0.0697944623757428,4475.404063512112
118,249.8649633,1237,40617,0.8614594306460737,2.187555689807196e-05,1226.1591655529903,41668.93388298637,4433,0.06991427984623798,0.06981483890735303,4506.032684771935
119,250.397974325,1241,41110,0.861591555373828,2.1610563479741855e-05,1225.8786155971588,42079.45181091224,4482,0.07003983623784335,0.06981024501623098,4538.733561348981
120,250.93087999999997,1239,41793,0.861950076569216,2.1254378768289587e-05,1225.1146345330349,42536.40091508221,4538,0.07011819555658735,0.06978709932568092,4573.649527735535
121,251.46368032499998,1234,42820,0.8619606849508069,2.0727184267561364e-05,1223.9993204828866,43036.6832770836,4615,0.07007861000862498,0.06974204412602819,4610.644250152803
