,x_(nm),baseline_dark,baseline_light,baseline_mirror,baseline_calibration,baseline_dark_smoothed,baseline_light_smoothed,raw_signal,calibrated_signal,calibrated_signal_smoothed,raw_signal_smoothed
0,186.23,1020,1026,0.3621226043733797,0.06035376739556328,991.3679767020493,3737.7482221400182,999,-1.267429115306829,,1207.6038336637682
1,186.775442325,1017,1023,1.18800459154587,0.19800076525764498,997.6486847472413,2806.6490483824637,1004,-2.574009948349385,,1140.3090425010523
2,187.3207793,1005,1024,1.908567993433533,0.10045094702281752,1003.5956145786805,1992.1064543734026,995,-1.0045094702281752,,1081.9163169734925
3,187.86601092499998,1000,1021,1.7279185264672412,0.08228183459367815,1009.2174187042979,1290.1465846264382,998,-0.1645636691873563,,1032.1119617884253
4,188.41113719999998,995,1014,1.043047789334166,0.05489725207021927,1014.5227496320247,696.7955836551732,1010,0.8234587810532891,,990.5822816531878
5,188.956158125,988,1018,0.840365554154959,0.02801218513849863,1019.5202598697917,208.07959597320996,1016,0.7843411838779617,,957.0135812751168
6,189.50107369999998,998,1023,0.8202728553565946,0.032810914214263784,1024.2186019255305,-179.9752339058473,1021,0.7546510269280671,,931.0921653615492
7,190.045883925,1033,1031,0.837733819880384,-0.418866909940192,1028.6264283071716,-471.3427614683965,1049,-6.701870559043072,,912.504338619822
8,190.59058879999998,1043,1044,0.8116271105193998,0.8116271105193998,1032.7523915226466,-669.9968422008355,1059,12.986033768310397,,900.936405757272
9,191.135188325,1045,1051,0.8262856362484797,0.13771427270807995,1036.605144079886,-779.9113315895597,1062,2.3411426360373593,,896.0746714812361
10,191.67968249999998,1051,1053,0.8012221689422371,0.40061108447111854,1040.1933384868216,-805.0600851209679,1060,3.605499760240067,,897.6054404990512
11,192.22407132499998,1045,1045,0.7775424502505143,inf,1043.5256272513839,-749.4169582814561,1039,-inf,,905.2150175180541
12,192.7683548,1035,1042,0.7753865851703869,0.11076951216719813,1046.6106628815044,-616.9558065574206,1037,0.22153902433439626,,918.5897072455821
13,193.312532925,1027,1053,0.7956261498651602,0.030601005764044623,1049.457097885114,-411.650485435262,1037,0.30601005764044625,,937.4158143889716
14,193.8566057,1033,1074,0.7908861747409445,0.019289906700998647,1052.0735847701437,-137.4748504013728,1040,0.13502934690699053,,961.3796436555597
15,194.400573125,1049,1086,0.7942231778648126,0.02146549129364358,1054.4687760445247,201.59724305784675,1046,-0.06439647388093074,,990.1674997526832
16,194.9444352,1062,1091,0.7947581770897779,0.027405454382406134,1056.6513242161882,601.5919394559983,1054,-0.21924363505924907,,1023.465687387679
17,195.488191925,1078,1102,0.7914877943554887,0.03297865809814536,1058.629881793065,1058.5353833066893,1070,-0.2638292647851629,,1060.9605112678844
18,196.0318433,1080,1103,0.7911116722494277,0.034396159663018594,1060.4131012830865,1568.4537191235195,1078,-0.06879231932603719,,1102.3382761006355
19,196.575389325,1063,1082,0.7900325230816138,0.04158065910955862,1062.0096351941834,2127.3730914200933,1061,-0.08316131821911724,,1147.28528659327
20,197.11883,1050,1075,0.798472358442206,0.03193889433768824,1063.4281360342873,2731.319644710012,1056,0.19163336602612946,,1195.4878474531245
21,197.662165325,1070,1084,0.7981102791346143,0.05700787708104388,1064.6772563113288,3376.3195235068783,1073,0.17102363124313164,,1246.6322633875357
22,198.2053953,1094,1081,0.8040599544843242,-0.0618507657295634,1065.7656485332393,4058.3988723242974,1081,0.8040599544843242,,1300.4048391038405
23,198.74851992499998,1082,1076,0.8074165803696804,-0.1345694300616134,1066.7019652079498,4773.583835675869,1064,2.422249741109041,,1356.491879309376
24,199.2915392,1078,1081,0.8060625325032217,0.26868751083440723,1067.4948588433913,5517.9005580752,1067,-2.9555626191784796,,1414.579688711479
25,199.83445312499998,1089,1091,0.8122546130835153,0.40612730654175766,1068.1529819474754,6287.375184035759,1090,0.40612730654175766,-inf,1474.3545720174582
26,200.3772617,1075,2055,0.8144257223941842,0.0008310466555042696,1069.3547985231623,6973.404357969468,1153,0.06482163912933303,-inf,1526.9566468096377
27,200.919964925,1058,6038,0.8150182986479615,0.0001636582929011971,1070.238533149088,7675.918593852488,1449,0.06399039252436807,-inf,1579.9170989150075
28,201.4625628,1062,10588,0.8232603193402961,8.642245636576696e-05,1070.4562504246776,8396.446623932432,1775,0.061619211388791846,-inf,1633.3726698226149
29,202.005055325,1057,12507,0.8194894939197722,7.157113484015479e-05,1070.8264513352306,9131.891481120576,1932,0.06262474298513544,-inf,1688.0613603931815
30,202.5474425,1062,13380,0.8269202298982968,6.713104642785329e-05,1070.9928877211057,9878.537407415608,2012,0.06377449410646063,-inf,1743.9862737547512
31,203.089724325,1065,14046,0.8298864771900701,6.393085873122796e-05,1070.2619538381186,10639.37430066346,2063,0.0638029970137655,inf,1800.803914018403
32,203.63190079999998,1066,14668,0.8293789756785952,6.0974781332053753e-05,1069.1885206912748,11414.347867448647,2123,0.06445034386798082,inf,1858.1808874492835
33,204.173971925,1071,15133,0.8303112569560028,5.904645547973281e-05,1069.1109198396134,12199.535346213723,2166,0.06465586875030743,inf,1917.0734784479462
34,204.71593769999998,1076,15514,0.832804584655424,5.768143680949051e-05,1069.5947813087294,12988.120954041746,2184,0.06391103198491548,inf,1976.3000294457029
35,205.257798125,1072,15827,0.8371769300637781,5.673852457226555e-05,1070.145167500942,13773.69104622955,2208,0.06445496391409367,inf,2034.7793834514546
36,205.7995532,1056,16236,0.8381556767340916,5.52144714581088e-05,1070.897415569981,14550.556524496313,2242,0.06548436314931703,inf,2092.759201793885
37,206.34120292499998,1053,16831,0.840625124319978,5.327830677652288e-05,1071.3284785612152,15321.089673604998,2295,0.06617165701644141,0.057956236664488646,2149.779360800883
38,206.88274729999998,1063,17468,0.8415937915656597,5.1301054042405346e-05,1070.9199528867946,16085.133683661836,2342,0.06561404812023644,0.062184649385995994,2205.52628598605
39,207.424186325,1064,17789,0.8431564976534377,5.041294455326982e-05,1069.5280980316452,16831.652381707074,2344,0.06452856902818536,0.07008673292021124,2259.552673899705
40,207.96552,1069,18062,0.844165982526256,4.967727785124792e-05,1068.088835534193,17558.03979705056,2338,0.06304046559323362,0.07391413160302522,2311.9278126344434
41,208.506748325,1074,18462,0.8476484869242688,4.8749050317705816e-05,1067.4239733629095,18267.473147749315,2363,0.06283752585952279,0.07175715304057761,2362.7742870732745
42,209.0478713,1078,18901,0.8491768105118729,4.764499862603787e-05,1067.2607986590656,18955.915422772523,2411,0.06351078316850847,0.06388452837425485,2411.9545856077816
43,209.588888925,1072,19418,0.8502736512177026,4.634654154680599e-05,1067.3620240548844,19617.23321026486,2444,0.06358745500221781,0.05292771575017962,2459.360189358715
44,210.12980119999997,1063,19882,0.8513731200582484,4.5240082898041784e-05,1067.7851819973068,20249.504586739968,2459,0.06315515572566634,0.04630359030335437,2504.455163197307
45,210.670608125,1063,20372,0.8534308197221572,4.4198602709728994e-05,1067.8929081066185,20840.32899952394,2495,0.06329239908033192,0.0383390045527527,2546.1696980678576
46,211.2113097,1054,20773,0.8557212941711507,4.3395775352256744e-05,1067.627828489866,21384.970463656748,2525,0.06383518554316966,0.038298443367879215,2584.721239439122
47,211.751905925,1058,20985,0.8575135521308375,4.303274713357944e-05,1067.5322430858932,21880.47763256204,2524,0.06308600729782746,0.03821849345761735,2619.946657908396
48,212.29239679999998,1069,21310,0.8580327959771828,4.239083029381863e-05,1068.345692994158,22319.03637681445,2553,0.06290799215602684,0.05917057007504278,2650.80035787895
49,212.83278232499998,1069,21760,0.8587529108532552,4.150369295119884e-05,1069.4482321230173,22706.162381933467,2592,0.06321012436467584,0.13690289408117495,2676.9824911096
50,213.37306249999997,1080,22199,0.8598387128136875,4.0713988011444076e-05,1070.3353416838227,23041.488686040015,2622,0.06278096951364677,0.05455280663933605,2699.0448254773087
51,213.91323732499998,1076,22734,0.8611437003932625,3.976099826360987e-05,1070.8480373281184,23315.93997598995,2660,0.06298142124955804,0.06365990268216037,2716.8419896259866
52,214.45330679999998,1081,23357,0.8624756676121401,3.871770818872958e-05,1070.9247095064236,23562.672699267936,2728,0.06376806538683762,0.06368833398994281,2732.4728759427776
53,214.993270925,1088,23872,0.8630074298534857,3.787778396477729e-05,1069.993453985347,23883.73908808761,2775,0.06389982154857929,0.06369896576714679,2753.1362205258933
54,215.5331297,1071,24416,0.8629495266956824,3.696506860979577e-05,1068.8059978708259,24312.953656934005,2802,0.06398653376355648,0.06363971196327761,2781.291603433773
55,216.07288312499998,1062,25013,0.8648478670709356,3.610905043926916e-05,1068.3132800289723,24781.575460372354,2831,0.06387691022706714,0.0636087621793137,2813.9161249404883
56,216.61253119999998,1073,25435,0.8650803831098881,3.5509415610782695e-05,1068.7791569457765,25257.125234999177,2859,0.0634198162808579,0.06361723463957923,2848.6763233594775
57,217.152073925,1084,25745,0.8652291434094919,3.5084917213798787e-05,1069.9071100137962,25739.905184714902,2890,0.06336336048812061,0.06362794993873713,2884.7321796642636
58,217.69151129999997,1079,26064,0.8680312398394996,3.4742094850490276e-05,1071.0981902194635,26235.729031234638,2905,0.06343906519699524,0.06365262421356899,2922.1135699562283
59,218.230843325,1066,26503,0.868212549145114,3.413187676003908e-05,1072.2168339033522,26744.00221975532,2936,0.06382660954127307,0.0636831904397068,2960.470678837517
60,218.77006999999998,1061,27057,0.868144571802742,3.339531357911763e-05,1073.233187614648,27259.52934381247,2992,0.06448635052127615,0.06368800416875517,2998.76307504128
61,219.30919132499997,1055,27719,0.8681762475955156,3.255986527135897e-05,1074.0292418854128,27775.97401979606,3029,0.0642731740456626,0.06371661431612416,3037.498153978514
62,219.84820729999998,1054,28197,0.868951283960652,3.2013826178412555e-05,1074.2600285396973,28294.698860675802,3051,0.06393161087828987,0.06379473258726286,3077.2352488164493
63,220.38711792499998,1066,28558,0.8691522224557424,3.1614732375081566e-05,1073.9601349973746,28825.138576184636,3091,0.06401983305954018,0.06390482284009286,3118.0628100296126
64,220.9259232,1086,29194,0.8692686507714266,3.092602286791755e-05,1073.8323404833427,29374.247163015585,3141,0.06355297699357057,0.06399634668371569,3159.8832363133324
65,221.464623125,1090,29841,0.8701622824311823,3.0265461459816433e-05,1074.2108994541009,29933.36200140376,3185,0.06340614175831542,0.06404217977993946,3201.5082787831507
66,222.0032177,1077,30258,0.86932404321908,2.979075573897673e-05,1074.8036648621508,30493.95540102775,3220,0.06384158954862713,0.0640335944191873,3242.150467734202
67,222.54170692499997,1071,30663,0.8705973257298546,2.9420023172812064e-05,1075.5237038211303,31053.059004733375,3253,0.06419449056307593,0.0640248139713879,3283.0539310063023
68,223.0800908,1079,31143,0.8704844215444587,2.8954378044985986e-05,1076.1911255067857,31612.50161951513,3290,0.06401812985746401,0.06404318743790328,3324.86849079248
69,223.61836932499997,1073,31534,0.8703398065724872,2.8572266392189595e-05,1076.4435661056668,32171.960225599058,3330,0.06448760524717191,0.0640627102604368,3366.4312668462962
70,224.1565425,1067,32190,0.8697053263836744,2.7944135410586202e-05,1076.2358150807286,32729.99966024083,3371,0.0643832879859906,0.06406809205655427,3407.235656526696
71,224.69461032499999,1063,32914,0.8700422735223692,2.7316011224839696e-05,1075.7468345828693,33287.841083602616,3404,0.06394678227734973,0.06406781360860596,3447.551428118351
72,225.23257279999999,1075,33653,0.8700397124616915,2.6706357433289077e-05,1074.6401050986226,33843.09171215591,3456,0.06358783704866129,0.06407350208871684,3487.015402387303
73,225.77042992499997,1071,34556,0.8700678242154535,2.598380839825156e-05,1073.7329271330966,34388.29552198172,3531,0.06392016865969884,0.06405675794148578,3525.4798976193574
74,226.30818169999998,1051,35160,0.8699872642519537,2.5506091185668116e-05,1073.15936940812,34920.746200366266,3584,0.06460692897329734,0.06403263741298573,3563.327391333824
75,226.84582812499997,1053,35630,0.8700242014773532,2.5161934276465662e-05,1072.477723164717,35446.34107227728,3627,0.06476681882762261,0.06401431649298703,3600.8194523091565
76,227.3833692,1079,36256,0.8696880407569096,2.4723200976686746e-05,1072.0308047747196,35962.28773018573,3688,0.06450283134817572,0.06397741513532296,3637.3623864639503
77,227.92080492499997,1085,36637,0.87010037851645,2.4474020547829937e-05,1071.4430904437042,36464.49425807989,3715,0.06436667404079273,0.0639351919168589,3672.5663548437547
78,228.45813529999998,1107,36858,0.8693067287349536,2.4315591976027344e-05,1071.1297424630025,36954.886588596986,3753,0.06433905636856835,0.06390324838215124,3707.2128700536105
79,228.99536032499998,1127,37149,0.8691277262341458,2.412769213908572e-05,1071.1973997145824,37427.0948832356,3788,0.0642037887821071,0.06387076710577586,3740.846202631925
80,229.53248,1105,37643,0.86926662631248,2.3790755550727462e-05,1071.1313280028787,37876.59573263194,3792,0.0639257601648047,0.06383857545465796,3772.7683979251356
81,230.069494325,1079,38393,0.8686441253792921,2.3279308714672568e-05,1070.5166594939658,38310.90511676296,3809,0.06355251279105611,0.06380469394666857,3803.1232190988876
82,230.60640329999998,1057,39019,0.868302707705708,2.2872944199612983e-05,1070.119323200958,38718.20344741597,3828,0.06338092837712758,0.06375564489334704,3831.2579673378045
83,231.143206925,1051,39441,0.8687016218294412,2.2628330862970597e-05,1070.039344039482,39083.0616321993,3857,0.06349509640149549,0.06370422272359616,3856.553285465055
84,231.67990519999998,1054,39710,0.8683284847277679,2.246296783753539e-05,1069.5618473804411,39406.32630410579,3883,0.06354773601238761,0.06366023672267057,3878.722462569859
85,232.216498125,1060,40022,0.8683608504247778,2.2287378738893738e-05,1068.5661283381073,39699.27028924702,3918,0.0636973284357583,0.063626532217566,3898.4604634305806
86,232.75298569999998,1062,40431,0.868249886800152,2.2054151408472453e-05,1067.4297492581736,39965.45432512551,3938,0.06342773945076677,0.06360501052933336,3916.4458538131485
87,233.289367925,1062,40853,0.867778574191436,2.1808413314353397e-05,1066.462071621081,40200.65385399366,3944,0.06285184717196649,0.06357243979800956,3932.021563342242
88,233.8256448,1073,41118,0.8676471171202086,2.166680277488347e-05,1065.3895444970237,40394.02353394111,3964,0.06263872682218811,0.06354421034118067,3944.7215565470715
89,234.36181632499998,1075,41153,0.8677489292852631,2.1651502801668326e-05,1064.4028856825546,40536.204285487,3982,0.06294091864444983,0.06353759369002997,3954.6422569026845
90,234.89788249999998,1056,41073,0.8672589311593729,2.167226256739318e-05,1064.0263199619267,40648.9511880216,3990,0.06358641837273159,0.06350422295039528,3962.0363768148013
91,235.433843325,1049,41109,0.8668004592010585,2.1637555147305505e-05,1063.622686810553,40743.70805680684,4006,0.06398225057058238,0.06344318391798638,3966.8817413757197
92,235.9696988,1045,41282,0.8665578153052318,2.1536342553004244e-05,1063.0135903417768,40804.320641463346,4001,0.06366142858668054,0.06337784517044522,3968.779768511101
93,236.505448925,1047,41364,0.8666098942893835,2.1494900272574437e-05,1062.3413214342136,40824.1412716022,3990,0.06325949150218657,0.06331138579231965,3967.3150467733503
94,237.04109369999998,1052,41475,0.8664654382940954,2.143496124221595e-05,1061.7482162676188,40809.508392035284,3999,0.0631688307808104,0.06324711209232504,3963.580488799218
95,237.576633125,1055,41524,0.8658853313998153,2.1396262111735287e-05,1060.9006772520127,40756.55949172044,4001,0.06303338818117216,0.06321774424854419,3958.2926680105247
96,238.11206719999998,1061,41486,0.8659634438688039,2.142148284152885e-05,1060.0956760062313,40667.91857120129,4009,0.06315053141682705,0.06319126332460684,3950.6372058256507
97,238.64739592499998,1070,41348,0.8653764850454776,2.148509074545602e-05,1059.5511110104217,40556.82579446796,4020,0.06338101769909525,0.06315474267027382,3941.071236041511
98,239.1826193,1064,41142,0.865240351462597,2.1588910411262963e-05,1059.1333439035789,40436.79673378708,3995,0.06327709641541174,0.06311738973316276,3931.1377381140387
99,239.71773732499997,1061,41005,0.8654717432609225,2.1667127560107213e-05,1058.3920134091168,40323.845953474956,3974,0.06311634258259231,0.06309371761628295,3922.123400303443
100,240.25275,1063,40672,0.8654328986505,2.1849400354729986e-05,1057.2986024598315,40211.14265328696,3945,0.06296997182233183,0.06308344637654517,3913.1551790526782
101,240.787657325,1066,40295,0.8649750843904328,2.204937888782362e-05,1056.569503272987,40095.853111054974,3918,0.06288482858807297,0.06307085663604485,3904.0433531902577
102,241.3224593,1068,40048,0.8650023747478218,2.2190928033551098e-05,1056.7086004212804,39994.898321592016,3905,0.06295566283118446,0.06305564426875654,3896.626899816456
103,241.85715592499997,1065,39751,0.864426750181391,2.2344691882887633e-05,1057.1184171781715,39898.498018074395,3894,0.06321313333668911,0.06304529246675562,3889.979727740078
104,242.3917472,1061,39493,0.8640504083213235,2.2482577235671408e-05,1058.032005254912,39795.00899227539,3877,0.06331093749565068,0.06304979207873418,3884.1038755123946
105,242.92623312499998,1048,39363,0.8638615542876957,2.2546301821419698e-05,1059.4762961788285,39695.393100635716,3859,0.06337765442001077,0.0630632867036638,3879.55432739126
106,243.46061369999998,1054,38978,0.8647030136247108,2.2800944352513206e-05,1060.9135880767196,39620.18480599711,3831,0.06331822246692917,0.06307213862460366,3876.540442592057
107,243.994888925,1055,38751,0.863747888775786,2.29135157251641e-05,1061.9400665926546,39571.76746925109,3818,0.06331004394862841,0.06307186561504086,3874.722507870999
108,244.52905879999997,1055,38896,0.8628771528607923,2.2802704813847208e-05,1062.35296382702,39542.769462501215,3827,0.06320909774398446,0.06305608106288127,3873.038981630314
109,245.063123325,1065,39007,0.8633129275796555,2.275349026355109e-05,1062.9768058166458,39533.718430767774,3828,0.06286789359819166,0.06303712437070455,3872.7195179958035
110,245.59708249999997,1071,38824,0.8623491049005171,2.284186965010773e-05,1063.5586536501187,39553.56091870635,3818,0.06274661592884594,0.06302604992259891,3874.8638700762585
111,246.130936325,1071,38598,0.862505803534046,2.2983606564181684e-05,1064.1952705610342,39620.347844797536,3810,0.06295209837929364,0.06302127448439886,3880.735463996845
112,246.66468479999997,1057,38635,0.8631762817630669,2.2970256047769093e-05,1064.6471267752179,39737.29873836251,3807,0.06316820413136501,0.06302304004803104,3890.5186300934724
113,247.19832792499997,1055,38914,0.8629529675416884,2.2793865858625118e-05,1064.7761217694422,39903.70649391756,3804,0.06266033724536045,0.06302629586874528,3903.9792747286842
114,247.7318657,1061,39475,0.8621360146885437,2.2443276271373554e-05,1065.4390586423046,40117.15975446706,3817,0.06185366940390551,0.06302168370365328,3920.9982332554914
115,248.265298125,1061,39661,0.8624878814902607,2.2344245634462713e-05,1066.7386350766517,40369.53246959084,3838,0.06204997012690295,0.06300699944506451,3940.765996964748
116,248.79862519999998,1070,39520,0.862427427307537,2.2429842062614747e-05,1067.785906815536,40649.891073409715,3862,0.06262411903882037,0.06300113156038267,3962.6261296970856
117,249.33184692499998,1068,39733,0.8621956715984717,2.2299125089835037e-05,1068.6671045776598,40951.323767241964,3899,0.06312882312932298,0.06299679870020762,3985.8712088608263
118,249.8649633,1066,40237,0.8614594306460737,2.1992275679611797e-05,1069.0081089039184,41291.576321093686,3959,0.06362365354111693,0.06297285669572512,4010.3204829100687
119,250.397974325,1074,40710,0.861591555373828,2.1737601053936523e-05,1069.112301524363,41675.37939704103,3997,0.06353900788065646,0.06294328456418075,4037.4171328908155
