,x_(nm),baseline_dark,baseline_light,baseline_mirror,baseline_calibration,baseline_dark_smoothed,baseline_light_smoothed,raw_signal,calibrated_signal,calibrated_signal_smoothed,raw_signal_smoothed
0,186.23,1061,1058,0.3621226043733797,-0.12070753479112656,1037.7151155253255,3825.782694758304,1042,2.2934431610314046,,1197.1031807014044
1,186.775442325,1050,1059,1.18800459154587,0.1320005101717633,1045.2404159986838,2877.4892354490826,1038,-1.5840061220611599,,1147.4451824658258
2,187.3207793,1048,1051,1.908567993433533,0.6361893311445109,1052.2813873170614,2047.8285819085163,1050,1.2723786622890219,,1104.267989730967
3,187.86601092499998,1055,1054,1.7279185264672412,-1.7279185264672412,1058.8525990108988,1332.7426071380228,1055,-0.0,,1067.3611859741475
4,188.41113719999998,1056,1067,1.043047789334166,0.094822526303106,1064.9686206106371,728.1731841390206,1056,0.0,,1036.5143546726863
5,188.956158125,1061,1067,0.840365554154959,0.14006092569249315,1070.6440216467167,230.0621859129269,1056,-0.7003046284624658,,1011.5170793039031
6,189.50107369999998,1064,1059,0.8202728553565946,-0.1640545710713189,1075.893371649579,-165.64851453883966,1049,2.4608185660697837,,992.1589433451171
7,190.045883925,1073,1073,0.837733819880384,inf,1080.731240149664,-463.01704421486147,1052,-inf,,978.2295302736477
8,190.59058879999998,1087,1083,0.8116271105193998,-0.20290677762984996,1085.172196677413,-666.1015301137209,1065,4.463949107856699,,969.518423566814
9,191.135188325,1093,1084,0.8262856362484797,-0.09180951513871997,1089.2308107632668,-778.9600992339997,1083,0.9180951513871998,,965.8152067019355
10,191.67968249999998,1105,1092,0.8012221689422371,-0.06163247453401824,1092.921651937666,-805.6508785742794,1098,0.4314273217381277,,966.9094631563316
11,192.22407132499998,1107,1082,0.7775424502505143,-0.03110169801002057,1096.2592897310515,-750.2319951331433,1098,0.2799152820901851,,972.5907764073214
12,192.7683548,1088,1076,0.7753865851703869,-0.06461554876419891,1099.2582936738638,-616.7615759091718,1087,0.06461554876419891,,982.6487299322243
13,193.312532925,1081,1072,0.7956261498651602,-0.08840290554057335,1101.9332332965441,-409.29774790094916,1077,0.3536116221622934,,996.87290720836
14,193.8566057,1091,1083,0.7908861747409445,-0.09886077184261806,1104.2986781295328,-131.89863810705447,1076,1.482911577639271,,1015.0528917130471
15,194.400573125,1109,1102,0.7942231778648126,-0.1134604539806875,1106.369197703271,211.3776264739272,1084,2.836511349517188,,1036.9782669236056
16,194.9444352,1113,1105,0.7947581770897779,-0.09934477213622224,1108.1593615481995,616.4729188434162,1090,2.2849297591331115,,1062.4386163173544
17,195.488191925,1116,1118,0.7914877943554887,0.39574389717774433,1109.6837391947588,1079.3291120028284,1092,-9.497853532265864,,1091.223523371613
18,196.0318433,1119,1126,0.7911116722494277,0.11301595317848967,1110.9569001733898,1595.8880789535838,1097,-2.4863509699267725,,1123.1225715637008
19,196.575389325,1115,1109,0.7900325230816138,-0.13167208718026896,1111.9934140145333,2162.091692697098,1100,1.9750813077040343,,1157.925344370937
20,197.11883,1115,1091,0.798472358442206,-0.03326968160175858,1112.8078502486303,2773.881826234792,1102,0.4325058608228616,,1195.4214252706408
21,197.662165325,1120,1091,0.7981102791346143,-0.02752104410809015,1113.4147784061213,3427.2003525680802,1101,0.5228998380537129,,1235.400397740132
22,198.2053953,1118,1098,0.8040599544843242,-0.04020299772421621,1113.8287680174471,4117.989144698384,1094,0.9648719453811891,,1277.6518452567293
23,198.74851992499998,1102,1092,0.8074165803696804,-0.08074165803696805,1114.0643886130485,4842.190075627121,1082,1.614833160739361,,1321.9653512977527
24,199.2915392,1105,1096,0.8060625325032217,-0.08956250361146907,1114.1362097233666,5595.745018355703,1090,1.343437554172036,,1368.1304993405206
25,199.83445312499998,1135,1123,0.8122546130835153,-0.06768788442362628,1114.0588008788209,6374.595845885403,1120,1.0153182663543943,-inf,1415.9368728623251
26,200.3772617,1139,2095,0.8144257223941842,0.0008519097514583517,1114.5587442523968,7066.570137488821,1187,0.04089166807000088,-inf,1458.96529932725
27,200.919964925,1112,6115,0.8150182986479615,0.00016290591617988437,1114.4175632516942,7774.664907472274,1408,0.048220151189245775,inf,1502.9591836734407
28,201.4625628,1099,10696,0.8232603193402961,8.57830904803893e-05,1113.4993544587433,8498.174296133386,1669,0.0488963615738219,inf,1548.2711499693924
29,202.005055325,1100,12623,0.8194894939197722,7.111772055191984e-05,1113.1017463588994,9237.413961810962,1801,0.04985352210689581,inf,1595.3008901673572
30,202.5474425,1106,13523,0.8269202298982968,6.659581460081315e-05,1112.639493533241,9991.327504586548,1854,0.04981366932140824,inf,1643.8065641350565
31,203.089724325,1105,14182,0.8298864771900701,6.34615337761008e-05,1111.7276722009346,10759.1308749913,1884,0.04943653481158253,inf,1693.2827017599168
32,203.63190079999998,1118,14854,0.8293789756785952,6.0379948724417236e-05,1110.6313393281628,11541.522911050994,1930,0.049028518364226795,inf,1743.3652857369027
33,204.173971925,1122,15337,0.8303112569560028,5.841092205107301e-05,1109.970916668533,12335.328410609289,1966,0.04929881821110562,-0.010181308083839213,1794.7440712133566
34,204.71593769999998,1123,15696,0.832804584655424,5.7147092887903925e-05,1109.8874040181897,13131.288364402113,1999,0.050060853369803836,0.09631702778299235,1847.3171306257998
35,205.257798125,1121,16037,0.8371769300637781,5.612610150601891e-05,1110.001789394982,13922.64196244509,2031,0.05107475237047721,0.11255201242573548,1900.1059593648417
36,205.7995532,1114,16468,0.8381556767340916,5.458875060141277e-05,1110.3742327119314,14705.622981267701,2057,0.05147719181713224,0.11740851809851165,1953.0805227751105
37,206.34120292499998,1112,17069,0.840625124319978,5.268064951557173e-05,1110.772588280574,15482.32437880783,2104,0.05225920431944715,0.1190287873204593,2006.2633581734194
38,206.88274729999998,1101,17682,0.8415937915656597,5.0756515986108177e-05,1110.0660717116823,16249.183514915088,2136,0.052532994045621964,0.11452118749819223,2058.610999116588
39,207.424186325,1095,18012,0.8431564976534377,4.984078132372393e-05,1108.562277741264,16998.020068404396,2148,0.0524823427338813,0.11898182565271177,2109.3028607669075
40,207.96552,1093,18269,0.844165982526256,4.9147996188068e-05,1107.7385897755116,17728.874923553987,2164,0.05263750391742083,0.161378073080224,2159.3143446057256
41,208.506748325,1086,18640,0.8476484869242688,4.82880532598991e-05,1107.575392421098,18442.470678837217,2201,0.053841179384787496,0.2558430751518698,2209.121542956763
42,209.0478713,1094,19066,0.8491768105118729,4.72499894564808e-05,1107.0442818636677,19134.78665428399,2261,0.05514073769571309,0.3490784647110976,2258.217898480104
43,209.588888925,1107,19613,0.8502736512177026,4.5945836551264595e-05,1106.7650682914464,19800.54991052987,2292,0.054445816313248546,0.0743631216729193,2306.506262882467
44,210.12980119999997,1108,20060,0.8513731200582484,4.4922600256344895e-05,1107.0569435321086,20436.271285872448,2322,0.054536036711202704,-0.0293434978680067,2354.2158599288323
45,210.670608125,1097,20512,0.8534308197221572,4.395729177039182e-05,1107.3609594781096,21028.636866066776,2361,0.05556201679777526,-0.004773400409853098,2400.159369408095
46,211.2113097,1089,20900,0.8557212941711507,4.3194250374597486e-05,1107.7053613898179,21576.180932750045,2387,0.05606613698622754,-0.020352234519138455,2443.5045867403096
47,211.751905925,1095,21094,0.8575135521308375,4.2877821497616754e-05,1108.1861423814596,22074.479354005332,2415,0.05659872437685411,-0.031964793166172976,2484.1438764184445
48,212.29239679999998,1114,21444,0.8580327959771828,4.2205253122340525e-05,1108.418944936444,22515.197173208475,2458,0.05672386019642567,-0.02759022067504655,2521.0356746471693
49,212.83278232499998,1117,21892,0.8587529108532552,4.133588018547558e-05,1108.2435389249827,22903.057894855618,2500,0.05716752229651273,0.0022633155348541923,2554.34234070982
50,213.37306249999997,1119,22353,0.8598387128136875,4.0493487464146536e-05,1108.1349747445934,23239.3449681755,2549,0.05790568707372955,0.031845796019178946,2584.994405309244
51,213.91323732499998,1109,22900,0.8611437003932625,3.95183195077446e-05,1108.2252825658352,23514.300278601553,2590,0.05852663119096975,0.05804691516513979,2612.4776552129783
52,214.45330679999998,1113,23543,0.8624756676121401,3.8451879964874725e-05,1108.6858139481994,23758.730412919434,2642,0.05879292446629345,0.05823805888694955,2638.9963306076643
53,214.993270925,1131,24150,0.8630074298534857,3.7491091266062196e-05,1108.0546105234332,24078.09150830097,2697,0.0587110489226534,0.058619838828934505,2669.9631248725386
54,215.5331297,1114,24692,0.8629495266956824,3.659977634641116e-05,1106.8292600058678,24505.94448345329,2729,0.05910863879945403,0.05900083096871482,2707.0068631225554
55,216.07288312499998,1109,25203,0.8648478670709356,3.589474006271004e-05,1106.6513397811743,24972.477043647166,2759,0.05922632110347156,0.059396838371213324,2748.1355863099434
56,216.61253119999998,1122,25636,0.8650803831098881,3.528923811331844e-05,1107.0476341479775,25446.17413757907,2799,0.05918005231603502,0.05978415470565463,2790.4568619900256
57,217.152073925,1126,25918,0.8652291434094919,3.489952982451968e-05,1107.7939024666257,25928.848037327643,2838,0.05974799505957769,0.060123699814196546,2832.742327119472
58,217.69151129999997,1115,26194,0.8680312398394996,3.461187606521391e-05,1108.8720242813895,26427.6332646261,2855,0.0602246643534722,0.06040976257314752,2875.502457586753
59,218.230843325,1104,26662,0.868212549145114,3.3970285200137495e-05,1109.7370042356351,26939.206890302776,2877,0.060229315659843775,0.060673699345004446,2918.8392715576233
60,218.77006999999998,1098,27259,0.868144571802742,3.318468605186124e-05,1110.6405354594456,27458.41595506074,2934,0.06092708359121724,0.06092598653957777,2962.705587895479
61,219.30919132499997,1097,27913,0.8681762475955156,3.237530756248193e-05,1111.6264921062552,27979.56236834303,2989,0.06125408190821582,0.061173942223807794,3006.702643321422
62,219.84820729999998,1095,28382,0.868951283960652,3.184488159052487e-05,1112.4954359101919,28504.92407528995,3024,0.06142877658812247,0.06140077873840154,3050.529366463508
63,220.38711792499998,1110,28857,0.8691522224557424,3.1324187207833e-05,1112.9966703662383,29042.74817096594,3076,0.061583352050599685,0.06162113435034748,3094.809735214781
64,220.9259232,1127,29507,0.8692686507714266,3.062962123930326e-05,1112.9272010690856,29598.14251738374,3152,0.0620249830095891,0.06182434911112925,3139.674058302506
65,221.464623125,1111,30072,0.8701622824311823,3.0046002639107154e-05,1112.6571156764378,30162.366531517688,3199,0.06273605351045573,0.06199893538511564,3184.58397698696
66,222.0032177,1104,30498,0.86932404321908,2.9574880697389943e-05,1112.2341615891426,30725.560284490562,3231,0.06290577124334841,0.06214723785999739,3228.9057283290063
67,222.54170692499997,1121,30902,0.8705973257298546,2.9233314050228486e-05,1111.1771048041646,31286.281206821746,3270,0.06282239189394102,0.06231949386597496,3273.461460055658
68,223.0800908,1118,31351,0.8704844215444587,2.8792525437252628e-05,1110.2436068766917,31847.88479920209,3299,0.06279649797864799,0.06251087409815455,3318.8575732179024
69,223.61836932499997,1103,31768,0.8703398065724872,2.8382188376732013e-05,1109.6319735441134,32411.507961674615,3311,0.06266787193582428,0.06264259319231723,3363.128836440172
70,224.1565425,1098,32486,0.8697053263836744,2.770821098456972e-05,1108.6488482185116,32973.7910031931,3350,0.06239889113725101,0.0627556469773515,3406.7668123852654
71,224.69461032499999,1095,33143,0.8700422735223692,2.71480988992252e-05,1107.0627647285116,33534.6027769592,3409,0.06282070085280711,0.06287476481491311,3450.002763369432
72,225.23257279999999,1094,33854,0.8700397124616915,2.6557988780881916e-05,1105.2503793970207,34089.65969784075,3462,0.06288931743312838,0.06298563625629212,3492.4358875625053
73,225.77042992499997,1100,34762,0.8700678242154535,2.5847181516708855e-05,1103.7375025481679,34632.3844481182,3538,0.06301542853773619,0.06307979466323196,3533.719925706064
74,226.30818169999998,1096,35389,0.8699872642519537,2.5369237577696723e-05,1102.619628983648,35165.88763052323,3596,0.06342309394424181,0.06315018975746398,3574.1599356723136
75,226.84582812499997,1093,35823,0.8700242014773532,2.505108555938247e-05,1101.5194908151727,35694.52800742869,3632,0.06360470623527209,0.06320793117023206,3613.944234297423
76,227.3833692,1118,36451,0.8696880407569096,2.461404468222086e-05,1100.692880925934,36212.66479421889,3702,0.0636026914588587,0.0632549619220934,3652.698271761464
77,227.92080492499997,1117,36914,0.87010037851645,2.4306516705770036e-05,1099.796190174162,36717.51527780853,3734,0.06361015421900018,0.06329279009384052,3690.011189381342
78,228.45813529999998,1134,37142,0.8693067287349536,2.4142044232808087e-05,1098.8472219076098,37211.09232372123,3750,0.06315558771302596,0.06332545318145409,3726.3265985638823
79,228.99536032499998,1147,37450,0.8691277262341458,2.394093397884874e-05,1098.6849758771223,37687.883983781474,3785,0.06315618383620297,0.06333115139638677,3761.2981947495264
80,229.53248,1115,37982,0.86926662631248,2.357844756319961e-05,1098.417155541441,38141.517112504655,3784,0.06293087654617975,0.0633171918674531,3793.758839384738
81,230.069494325,1100,38765,0.8686441253792921,2.3062368920198915e-05,1097.9572357244574,38578.14369521319,3807,0.06242983266697846,0.0633030605506115,3825.0470225825443
82,230.60640329999998,1083,39337,0.868302707705708,2.2698350700729547e-05,1098.0831728917772,38988.64619810113,3848,0.0627609396875172,0.06327616663370512,3854.6616684408873
83,231.143206925,1080,39710,0.8687016218294412,2.248774584078284e-05,1098.467054746406,39355.00983034647,3888,0.06314559032091822,0.06324681396076545,3881.198894652126
84,231.67990519999998,1089,39993,0.8683284847277679,2.2319773923703678e-05,1098.2340030351552,39677.31894267065,3914,0.06305336133446289,0.06321209471472657,3903.681691544467
85,232.216498125,1088,40275,0.8683608504247778,2.215941129519427e-05,1097.3899069061376,39971.51471154422,3935,0.06308784395741808,0.0631597667572223,3922.9084690479217
86,232.75298569999998,1082,40679,0.868249886800152,2.192716334066096e-05,1096.390744977215,40241.9372352707,3965,0.06321601191112554,0.06311248824884533,3940.412761330872
87,233.289367925,1076,41059,0.867778574191436,2.1703688422365404e-05,1095.496659040954,40480.874040181334,3996,0.06337477019330698,0.06306086525704693,3955.626922467024
88,233.8256448,1083,41303,0.8676471171202086,2.1572529018403993e-05,1094.5078484223668,40676.928446849655,4025,0.06346638037214455,0.0630115358015779,3967.7509343359225
89,234.36181632499998,1088,41347,0.8677489292852631,2.1554160045834798e-05,1094.0703300187793,40824.15375206607,4031,0.06343389301489182,0.0629679730272634,3977.106004665942
90,234.89788249999998,1084,41316,0.8672589311593729,2.1556445892806048e-05,1094.2634940768548,40941.52189177479,4025,0.06339750737074258,0.0629328225771385,3985.235407370419
91,235.433843325,1081,41433,0.8668004592010585,2.1480978866005614e-05,1094.0330471811155,41037.10215406839,4033,0.06341184961244857,0.06290772594875303,3991.5791071144677
92,235.9696988,1089,41627,0.8665578153052318,2.1376432367290733e-05,1093.775283698364,41098.240435796164,4025,0.06276120543036559,0.06287074450455671,3994.893315816816
93,236.505448925,1087,41689,0.8666098942893835,2.1344019858366177e-05,1093.7980022197348,41117.974291602644,4013,0.06245260210557943,0.06282548621038783,3995.013250583175
94,237.04109369999998,1085,41769,0.8664654382940954,2.1297449569710336e-05,1093.5561847380252,41103.49070194036,4035,0.0628274762306455,0.06277783971179426,3992.3741421095974
95,237.576633125,1097,41801,0.8658853313998153,2.1272733181009613e-05,1092.8700763323989,41052.97030510239,4034,0.06247801735262523,0.06272108556363776,3986.4263743232377
96,238.11206719999998,1106,41763,0.8659634438688039,2.129924598147438e-05,1092.3243335069667,40970.38363269757,4027,0.06221509751188666,0.06263746216485326,3977.215474869117
97,238.64739592499998,1104,41717,0.8653764850454776,2.1307869033203104e-05,1091.7537430066157,40863.64291376849,4012,0.06196328314855463,0.06256469480835662,3966.4924913360815
98,239.1826193,1097,41579,0.865240351462597,2.137345861031068e-05,1091.305216426172,40746.889963531794,4001,0.06206852380434222,0.06248829626878315,3955.048313665013
99,239.71773732499997,1102,41352,0.8654717432609225,2.1502403559277577e-05,1091.0639878592738,40637.46533330235,3987,0.062034434268515806,0.0624063434100841,3944.1323019773195
100,240.25275,1107,40938,0.8654328986505,2.1727621667808994e-05,1090.789213798706,40527.12716029731,3958,0.061945449374923446,0.06233645067247663,3933.512219982257
101,240.787657325,1103,40597,0.8649750843904328,2.1901430201813764e-05,1090.5270561054404,40411.52916260766,3942,0.062178160342949276,0.062275144092569755,3922.8088971436882
102,241.3224593,1097,40336,0.8650023747478218,2.204445512749616e-05,1091.0336813970662,40309.47158485958,3927,0.062385808010814135,0.062219877652182516,3914.0133411854554
103,241.85715592499997,1104,40030,0.864426750181391,2.2206924682253277e-05,1091.558948107524,40214.65113592529,3903,0.06215718218562692,0.06216787653038526,3905.8248431447305
104,242.3917472,1099,39820,0.8640504083213235,2.2314775143238127e-05,1092.4533511517607,40114.77299599008,3891,0.06230285219992085,0.06210641436408213,3897.320482910071
105,242.92623312499998,1088,39723,0.8638615542876957,2.2359558801286287e-05,1093.911390971462,40021.411900608546,3894,0.06274092199640932,0.06204208133715358,3889.6858818998553
106,243.46061369999998,1089,39326,0.8647030136247108,2.2614300641386898e-05,1094.9293755237734,39954.07501868595,3842,0.06225716966573813,0.06196620284676189,3882.878411741981
107,243.994888925,1082,39081,0.863747888775786,2.273080577846222e-05,1095.5869895127653,39912.5300459799,3807,0.061941445746309554,0.0618818645266553,3877.3008222156045
108,244.52905879999997,1078,39255,0.8628771528607923,2.2602015686428798e-05,1095.7612176946038,39888.20913270892,3816,0.061884318949442046,0.06180847644810121,3873.106004665943
109,245.063123325,1089,39404,0.8633129275796555,2.2531982972195107e-05,1095.9066117012633,39883.55441799285,3837,0.061917889207592156,0.061736863885853074,3870.1705134883396
110,245.59708249999997,1100,39168,0.8623491049005171,2.2652860799109936e-05,1096.2580126389971,39908.38451606981,3834,0.061932921424766564,0.06165995586547908,3869.190513941351
111,246.130936325,1100,38870,0.862505803534046,2.2835737451258832e-05,1096.4318557611514,39977.13705859626,3812,0.06193051996781395,0.0615807320331269,3870.954925366299
112,246.66468479999997,1095,38897,0.8631762817630669,2.2834143213667713e-05,1096.2243538924795,40094.05014836047,3809,0.061971864681894175,0.06151142611150459,3876.2385784501735
113,247.19832792499997,1095,39181,0.8629529675416884,2.2658009965385927e-05,1095.680513714899,40259.480350630045,3816,0.06165244511581511,0.06146337297744817,3885.851389612374
114,247.7318657,1091,39767,0.8621360146885437,2.2291240425290717e-05,1095.013386486649,40470.44927404847,3834,0.06114487248657244,0.06142640200308799,3899.1194364537514
115,248.265298125,1089,39991,0.8624878814902607,2.217078508791992e-05,1094.544134634965,40720.257808783106,3832,0.06081446349616434,0.06138725689271624,3915.1220412692624
116,248.79862519999998,1090,39909,0.862427427307537,2.2216631734654086e-05,1094.026931527307,40999.292350901844,3826,0.06078470442601358,0.0613513838868622,3933.264762508702
117,249.33184692499998,1084,40154,0.8621956715984717,2.2067972142269557e-05,1093.508505288887,41299.89761942434,3852,0.061084146889802134,0.06132820518809627,3953.68008335402
118,249.8649633,1093,40697,0.8614594306460737,2.175182887198449e-05,1093.3808013771336,41640.50721420564,3900,0.06105738364366046,0.06129149129088839,3976.6461754512366
