,x_(nm),baseline_dark,baseline_light,baseline_mirror,baseline_calibration,baseline_dark_smoothed,baseline_light_smoothed,raw_signal,calibrated_signal,calibrated_signal_smoothed,raw_signal_smoothed
0,186.23,1132,1121,0.3621226043733797,-0.03292023676121633,1105.548497870362,3863.6152865919926,1114,0.592564261701894,,1241.1077466948725
1,186.775442325,1130,1119,1.18800459154587,-0.1080004174132609,1110.488228653822,2922.908768667936,1104,2.8080108527447836,,1196.0321820326265
2,187.3207793,1119,1123,1.908567993433533,0.4771419983583832,1115.1709309945552,2100.013721728016,1102,-8.111413972092516,,1157.088158017602
3,187.86601092499998,1110,1116,1.7279185264672412,0.28798642107787353,1119.6019449773135,1390.903677374843,1110,0.0,,1124.0544722323702
4,188.41113719999998,1107,1120,1.043047789334166,0.0802344453333974,1123.7866106868482,791.5521672110276,1114,0.5616411173337817,,1096.7099222595025
5,188.956158125,1109,1125,0.840365554154959,0.052522847134684934,1127.7302682079119,297.93272283917986,1110,0.052522847134684934,,1074.83330568157
6,189.50107369999998,1114,1121,0.8202728553565946,0.11718183647951351,1131.438257625256,-93.98112413809076,1107,-0.8202728553565946,,1058.2034200811436
7,190.045883925,1124,1129,0.837733819880384,0.1675467639760768,1134.9159190236326,-388.2158421181716,1121,-0.5026402919282303,,1046.5990630407948
8,190.59058879999998,1131,1157,0.8116271105193998,0.031216427327669223,1138.1685924877931,-588.7978994984546,1133,0.062432854655338446,,1039.7990321430948
9,191.135188325,1143,1169,0.8262856362484797,0.03178021677878768,1141.2016181024899,-699.7537646763271,1145,0.06356043355757536,,1037.5821249706144
10,191.67968249999998,1155,1163,0.8012221689422371,0.10015277111777963,1144.0203359524746,-725.1099060491811,1154,-0.10015277111777963,,1039.727139105925
11,192.22407132499998,1147,1154,0.7775424502505143,0.1110774928929306,1146.630086122499,-668.8927920144047,1151,0.4443099715717224,,1046.0128721315978
12,192.7683548,1136,1148,0.7753865851703869,0.06461554876419891,1149.0362086973153,-535.1288909693881,1138,0.12923109752839781,,1056.2181216302038
13,193.312532925,1139,1143,0.7956261498651602,0.19890653746629006,1151.2440437616747,-327.8446713115195,1118,-4.177037286792091,,1070.1216851843144
14,193.8566057,1149,1138,0.7908861747409445,-0.07189874315826768,1153.2589314003296,-51.066601438190446,1125,1.7255698357984244,,1087.5023603765005
15,194.400573125,1147,1143,0.7942231778648126,-0.19855579446620314,1155.0862116980315,291.17885025321266,1140,1.389890561263422,,1108.1389447893334
16,194.9444352,1154,1154,0.7947581770897779,inf,1156.7312247395328,694.8652153652952,1163,inf,,1131.8102360053845
17,195.488191925,1170,1179,0.7914877943554887,0.08794308826172097,1158.1993106095847,1155.9660255006706,1180,0.8794308826172097,,1158.2950316072247
18,196.0318433,1180,1187,0.7911116722494277,0.11301595317848967,1159.4958093929392,1670.454812261949,1178,-0.22603190635697934,,1187.372129177425
19,196.575389325,1172,1177,0.7900325230816138,0.15800650461632276,1160.6260611743485,2234.3051072517414,1169,-0.4740195138489683,,1218.820326298557
20,197.11883,1166,1174,0.798472358442206,0.09980904480527575,1161.595406038564,2843.4904420726557,1161,-0.49904522402637874,,1252.4184205531917
21,197.662165325,1173,1179,0.7981102791346143,0.13301837985576906,1162.409184070338,3493.9843483273044,1166,-0.9311286589903834,,1287.9452095238998
22,198.2053953,1177,1183,0.8040599544843242,0.13400999241405404,1163.0727353544219,4181.760357618298,1172,-0.6700499620702702,,1325.1794907932533
23,198.74851992499998,1166,1177,0.8074165803696804,0.07340150730633459,1163.5913999755678,4902.792001548248,1152,-1.0276211022886843,,1363.9000619438227
24,199.2915392,1168,1179,0.8060625325032217,0.07327841204574742,1163.9705180185276,5653.052811719761,1144,-1.758681889097938,,1403.8857205581794
25,199.83445312499998,1190,1203,0.8122546130835153,0.062481124083347335,1164.2154295680311,6428.516319735318,1168,-1.3745847298336413,inf,1444.9152642188674
26,200.3772617,1184,2177,0.8144257223941842,0.0008201668906285843,1164.4955038618998,7117.1610908512985,1235,0.041828511422057804,inf,1480.5812589186337
27,200.919964925,1153,6175,0.8150182986479615,0.0001622895855531584,1164.6941040566949,7822.4904527847375,1452,0.04852458608039436,inf,1516.4704749824166
28,201.4625628,1148,10750,0.8232603193402961,8.573842109355302e-05,1164.3397585449052,8545.232326892858,1671,0.044841194231928234,inf,1552.9354005752948
29,202.005055325,1158,12714,0.8194894939197722,7.091463256488164e-05,1164.148746290947,9284.84939636214,1781,0.044179816087921264,inf,1590.4889125461202
30,202.5474425,1148,13584,0.8269202298982968,6.64940680201268e-05,1163.7121112595757,10037.721964257209,1847,0.04647935354606863,inf,1628.9330449160484
31,203.089724325,1154,14246,0.8298864771900701,6.338882349450582e-05,1162.7424177217833,10803.613309474527,1865,0.04506945350459364,inf,1667.281320075168
32,203.63190079999998,1169,14909,0.8293789756785952,6.036237086452658e-05,1161.2672540714175,11583.627013069157,1882,0.04303837042640745,inf,1705.642234252159
33,204.173971925,1164,15382,0.8303112569560028,5.839859733830376e-05,1159.8755804208256,12373.490384832941,1907,0.04339015782235969,inf,1744.539559219881
34,204.71593769999998,1155,15734,0.832804584655424,5.712357395263214e-05,1159.097714557499,13165.40234206865,1926,0.04404227551747938,inf,1783.487734716494
35,205.257798125,1153,16025,0.8371769300637781,5.629215506077045e-05,1158.7110693333716,13954.851638768447,1937,0.044133049567644037,inf,1822.4307458832238
36,205.7995532,1154,16427,0.8381556767340916,5.48782607695994e-05,1158.4863077306172,14736.836191079921,1953,0.04384773035490992,-inf,1861.0699223085105
37,206.34120292499998,1167,17003,0.840625124319978,5.308317279110748e-05,1157.9780968991147,15510.696595619082,1975,0.04289120361521484,-inf,1898.7862012729252
38,206.88274729999998,1156,17628,0.8415937915656597,5.109238656906628e-05,1157.0449160796172,16274.750481324292,1992,0.04271323517173941,-inf,1934.973476182889
39,207.424186325,1140,18015,0.8431564976534377,4.9964829490574086e-05,1156.1028562368122,17021.45090488993,2004,0.04316961267985601,-inf,1968.7064712677147
40,207.96552,1150,18328,0.844165982526256,4.914227398569426e-05,1155.4168837346037,17747.81544315806,2023,0.042901205189511085,-inf,2001.0900133637979
41,208.506748325,1157,18657,0.8476484869242688,4.84370563956725e-05,1154.6732655326061,18456.243312418952,2050,0.04325429136133554,-inf,2032.890507146216
42,209.0478713,1164,19075,0.8491768105118729,4.7410910083851984e-05,1153.9773947314554,19145.239008810706,2072,0.0430491063561376,0.013760313242244613,2063.8840970350007
43,209.588888925,1160,19649,0.8502736512177026,4.59880821687329e-05,1153.6018935876018,19808.50689709808,2094,0.04295286874559653,0.06887373831695073,2093.6907064712277
44,210.12980119999997,1152,20077,0.8513731200582484,4.498669062394972e-05,1153.5377245237496,20441.566853155968,2091,0.04224250249588878,0.0946421935385781,2121.9226256539946
45,210.670608125,1149,20500,0.8534308197221572,4.4102672715733405e-05,1153.8212870053462,21031.110534779546,2091,0.041544717698220865,0.11240036211760396,2147.8135405105027
46,211.2113097,1136,20877,0.8557212941711507,4.334741371618209e-05,1154.4665111327326,21577.169267706668,2101,0.04183025423611572,0.1278233582537875,2171.2669822645626
47,211.751905925,1133,21082,0.8575135521308375,4.298529009628741e-05,1155.1482479784147,22075.20279054976,2125,0.04264140777551711,0.12746373051578866,2192.227706176768
48,212.29239679999998,1145,21444,0.8580327959771828,4.226970766920453e-05,1155.84377902102,22515.6357788394,2159,0.04286148357657339,0.13106195756444275,2209.9372126208546
49,212.83278232499998,1147,21966,0.8587529108532552,4.124851870182311e-05,1156.4168837346037,22901.97057690957,2169,0.04215598611326322,0.11991645536981868,2224.1970826065844
50,213.37306249999997,1159,22448,0.8598387128136875,4.0388872789407086e-05,1157.1413169040982,23236.031031279992,2195,0.04184287220982574,0.07961105558613002,2235.145620512313
51,213.91323732499998,1167,22963,0.8611437003932625,3.950925400960096e-05,1158.0996172053503,23512.06729484201,2231,0.04203784626621542,0.041652606266883656,2242.5451312600085
52,214.45330679999998,1167,23588,0.8624756676121401,3.846731491067036e-05,1158.642460757866,23759.808330879066,2261,0.04208324251227337,0.041410759209788685,2248.472921243926
53,214.993270925,1173,24137,0.8630074298534857,3.758088442141986e-05,1157.6190853699748,24080.43697478945,2282,0.041677200823354625,0.04137356065986304,2257.6934018890142
54,215.5331297,1153,24617,0.8629495266956824,3.6777596603123184e-05,1156.4721964257178,24510.870869101887,2290,0.04181612733775106,0.04124340707213845,2272.023352737278
55,216.07288312499998,1149,25149,0.8648478670709356,3.603532779462232e-05,1157.0748148315706,24982.0976692559,2294,0.04126045032484256,0.041085984136303405,2289.585539876284
56,216.61253119999998,1160,25603,0.8650803831098881,3.539174336660345e-05,1157.9396135812594,25458.754196017544,2317,0.04094824707516019,0.041010346480340576,2308.8725452444687
57,217.152073925,1176,25896,0.8652291434094919,3.500117894051343e-05,1158.931323472763,25943.16149856119,2331,0.04042636167629301,0.0409164756622072,2328.609685383543
58,217.69151129999997,1180,26216,0.8680312398394996,3.467132288862037e-05,1160.2056218713676,26441.11388706375,2338,0.04014939190502239,0.040771323160600094,2348.5988810618137
59,218.230843325,1163,26711,0.868212549145114,3.3983581851617116e-05,1161.2537996330386,26952.93220684449,2355,0.0405084295671276,0.04062841991755361,2368.765317447688
60,218.77006999999998,1158,27252,0.868144571802742,3.3269892381495436e-05,1161.936012140683,27473.851548165912,2370,0.040323109566372466,0.040509914373225264,2389.3827040249603
61,219.30919132499997,1163,27857,0.8681762475955156,3.25232729300785e-05,1162.2566762553856,27995.175972275163,2388,0.039841009339346166,0.04041306448689316,2410.2476613286362
62,219.84820729999998,1164,28386,0.868951283960652,3.192091998973815e-05,1162.594894561576,28518.655575437173,2410,0.039773466307213734,0.04031567791133957,2431.1903553873913
63,220.38711792499998,1165,28863,0.8691522224557424,3.13796022259998e-05,1163.2671861197086,29053.951097419544,2436,0.039883474429245745,0.04019446620090991,2452.4951867539003
64,220.9259232,1165,29491,0.8692686507714266,3.0688012807012166e-05,1163.6184285034547,29607.282928265082,2480,0.040354736841221,0.040075794021863516,2474.5249269518654
65,221.464623125,1164,30125,0.8701622824311823,3.0046002639107154e-05,1163.8080590726634,30171.712768125544,2509,0.040411873549599124,0.03996689799590754,2496.8328161452782
66,222.0032177,1162,30571,0.86932404321908,2.9559796090281207e-05,1164.2501528913228,30740.02124623375,2515,0.03999440411015047,0.039845196650561854,2518.9868853201174
67,222.54170692499997,1166,30928,0.8705973257298546,2.9251976538198194e-05,1164.7357811048723,31306.39763074981,2532,0.03995819995117873,0.039735819814336645,2541.1335704092467
68,223.0800908,1173,31365,0.8704844215444587,2.8831624984911855e-05,1165.5972275702509,31871.526557792316,2553,0.03978764247917836,0.03963360313231985,2563.863756823435
69,223.61836932499997,1178,31793,0.8703398065724872,2.8428541779274448e-05,1166.2224512446264,32437.583138915328,2562,0.039345101822515834,0.03953547426269094,2586.501778069669
70,224.1565425,1163,32533,0.8697053263836744,2.772410986240594e-05,1166.2983986047027,33001.23148882131,2581,0.039312787784891626,0.039421578220144256,2608.1069786404632
71,224.69461032499999,1145,33172,0.8700422735223692,2.7165899819601247e-05,1166.2693605743962,33562.51425853296,2595,0.03939055473842181,0.03929525016504988,2629.3211397766145
72,225.23257279999999,1150,33857,0.8700397124616915,2.6601024626584265e-05,1166.1166957348755,34118.09234637186,2616,0.03899710210257253,0.03917180805827016,2649.951414528025
73,225.77042992499997,1155,34772,0.8700678242154535,2.5881780772093092e-05,1165.9427167093029,34659.76862443024,2660,0.038952080062000106,0.039071865019802386,2670.2612969715674
74,226.30818169999998,1149,35457,0.8699872642519537,2.5358145745947117e-05,1165.6616004892298,35190.82953181204,2678,0.038772604845553144,0.03899309872769822,2690.611248272842
75,226.84582812499997,1145,35939,0.8700242014773532,2.5005006652795114e-05,1165.2128700536596,35719.83211397698,2692,0.03868274529187404,0.03889427446564177,2710.037939704132
76,227.3833692,1162,36473,0.8696880407569096,2.4629380101297318e-05,1165.1231737977987,36240.212666197855,2742,0.03891442056004976,0.038793436981117625,2729.333144578534
77,227.92080492499997,1178,36868,0.87010037851645,2.4379388582696834e-05,1165.3577883983558,36746.814808941745,2769,0.038787607235070666,0.03870612404654946,2748.6572968809633
78,228.45813529999998,1209,37146,0.8693067287349536,2.418974117858902e-05,1165.8850936600832,37241.43337334862,2807,0.03865520640338525,0.03862154252409723,2767.626990418756
79,228.99536032499998,1217,37404,0.8691277262341458,2.4017678343994966e-05,1166.8024643819567,37717.02604815438,2823,0.03857239142045592,0.03854124077014315,2786.3835194454605
80,229.53248,1173,37897,0.86926662631248,2.3670259947513342e-05,1167.1921221318494,38165.791139096415,2818,0.03893757761365945,0.03848159334605664,2804.186799247947
81,230.069494325,1153,38705,0.8686441253792921,2.313176729280177e-05,1167.1209766925415,38597.43640852493,2830,0.03879197375002857,0.03841282797517259,2820.52818863389
82,230.60640329999998,1151,39323,0.868302707705708,2.2747110649316465e-05,1167.3680944075518,39002.237785679565,2840,0.03841986988669551,0.03834391775766983,2835.9858207433376
83,231.143206925,1155,39789,0.8687016218294412,2.2485417555247742e-05,1168.1800493782196,39360.463068245415,2854,0.038202724426365915,0.03826338729872878,2849.5750300119503
84,231.67990519999998,1158,40045,0.8683284847277679,2.2329531327378504e-05,1168.933067566627,39674.14086389197,2879,0.038429123414418405,0.038171579659850324,2860.6724274614953
85,232.216498125,1161,40281,0.8683608504247778,2.2197363252167123e-05,1169.1362658270632,39957.25769553027,2889,0.03835704369974479,0.03809078414530018,2870.128383428788
86,232.75298569999998,1171,40688,0.868249886800152,2.197155368069823e-05,1169.5648372556345,40212.324469409636,2895,0.03787895854552375,0.03799621481576487,2878.0156741941505
87,233.289367925,1172,41106,0.867778574191436,2.1730319381765813e-05,1170.4752089514827,40433.83104940013,2909,0.03774556476612722,0.03788054889426334,2884.1869578019337
88,233.8256448,1176,41341,0.8676471171202086,2.1602069391764186e-05,1171.5924483000522,40613.20895150435,2918,0.037630804880453214,0.037771329565905586,2888.9671566739353
89,234.36181632499998,1179,41371,0.8677489292852631,2.1590090796309295e-05,1172.7198124532604,40741.686131055416,2906,0.03728608680522615,0.037677551964914124,2892.115925615474
90,234.89788249999998,1168,41312,0.8672589311593729,2.160369995913145e-05,1173.7165281206596,40839.006093002456,2898,0.03737440092929741,0.03760510894924776,2894.5456295725285
91,235.433843325,1167,41307,0.8668004592010585,2.1594430971625774e-05,1174.7781150195704,40915.93709936726,2908,0.037595904321600475,0.037537121083382245,2896.2246483498507
92,235.9696988,1172,41411,0.8665578153052318,2.153527213164422e-05,1175.8891934131916,40955.78527259882,2921,0.03766519095824574,0.037466549842666216,2896.331355183527
93,236.505448925,1167,41498,0.8666098942893835,2.148743880115503e-05,1176.3926929262045,40950.88679245204,2907,0.03738814351400976,0.03741225329302596,2894.5161385308284
94,237.04109369999998,1172,41612,0.8664654382940954,2.142595050183223e-05,1176.9099639855717,40911.29219234786,2913,0.03730257982368991,0.03734712865049221,2890.7333574938853
95,237.576633125,1184,41636,0.8658853313998153,2.1405253915747436e-05,1177.7563931232646,40834.724025458454,2923,0.03722373655948479,0.03726425729966884,2884.97080341565
96,238.11206719999998,1186,41567,0.8659634438688039,2.1444824146722563e-05,1178.1908763505178,40726.61958368175,2907,0.03690654235650953,0.03718295996404998,2877.5429115041693
97,238.64739592499998,1176,41465,0.8653764850454776,2.147922472748089e-05,1178.3532582844234,40594.73025436512,2900,0.037030183430177055,0.03711951089816837,2869.520940451597
98,239.1826193,1169,41346,0.865240351462597,2.1535713255409738e-05,1178.871299463159,40452.26120636856,2894,0.037149105365581796,0.03704689281359378,2861.0690389362744
99,239.71773732499997,1181,41141,0.8654717432609225,2.1658452033556618e-05,1179.1930281546354,40318.013295883626,2884,0.03688434381314692,0.03698005987961104,2853.126639334925
100,240.25275,1188,40676,0.8654328986505,2.1916351768904476e-05,1178.8655009173253,40186.517021902335,2880,0.03708246719298637,0.03692013610133031,2845.0129787763613
101,240.787657325,1189,40262,0.8649750843904328,2.2137411624150507e-05,1178.303427031167,40050.62551813102,2861,0.03701375223557965,0.03686172523444574,2836.5265351423045
102,241.3224593,1189,39945,0.8650023747478218,2.2319186055006238e-05,1178.2920111440578,39923.630501256346,2844,0.03693825292103532,0.03681081186195079,2829.182019977748
103,241.85715592499997,1182,39593,0.864426750181391,2.250466663667676e-05,1178.7874470542708,39802.65847470987,2833,0.037155204617153326,0.03676114092011215,2822.5962535957237
104,242.3917472,1177,39336,0.8640504083213235,2.2643423787869797e-05,1180.2799383904278,39679.215610771855,2805,0.03686349392665203,0.03670891990550087,2816.7652721465406
105,242.92623312499998,1175,39222,0.8638615542876957,2.2705116153381232e-05,1181.9787084644952,39560.9235769772,2783,0.03650982677463702,0.036654327603035844,2811.226052685171
106,243.46061369999998,1185,38762,0.8647030136247108,2.3011496756651964e-05,1182.6574780855512,39466.68635756114,2768,0.03642719936578006,0.036616841928213635,2806.4287979342143
107,243.994888925,1185,38472,0.863747888775786,2.3164853401340576e-05,1183.1950440553353,39400.73761580027,2748,0.03620666586629532,0.03657282872373903,2802.333439035938
108,244.52905879999997,1184,38653,0.8628771528607923,2.3029094794651372e-05,1183.5334662166526,39358.420756981286,2751,0.0360865915432187,0.03652710612072498,2799.084577227064
109,245.063123325,1195,38785,0.8633129275796555,2.296655832880169e-05,1183.8746064463296,39343.8171192998,2769,0.03614936280953386,0.03648222280917978,2797.0520283584597
110,245.59708249999997,1202,38596,0.8623491049005171,2.3061162349588625e-05,1183.9837142403906,39361.50127975643,2769,0.03613684140180538,0.03645743030794795,2797.154295680483
111,246.130936325,1192,38334,0.862505803534046,2.322184598390087e-05,1183.8311626537181,39426.24034519393,2764,0.036504741886692164,0.03643902592273411,2799.286484405029
112,246.66468479999997,1181,38323,0.8631762817630669,2.3239897737414974e-05,1184.3225214613922,39544.59043239862,2767,0.03685847781154015,0.036394501282379955,2802.8433260095953
113,247.19832792499997,1174,38581,0.8629529675416884,2.3069290976065666e-05,1185.0916215542593,39716.20276789885,2764,0.03668017265194441,0.03634775326494511,2808.804049921802
114,247.7318657,1173,39189,0.8621360146885437,2.267824112711868e-05,1185.6707060182337,39935.95447235421,2776,0.03635322052677124,0.03630606530254593,2816.891435819557
115,248.265298125,1176,39387,0.8624878814902607,2.2571717083830853e-05,1186.1212711499466,40197.93098371348,2781,0.03622760591954852,0.03625829864322839,2826.3582867108566
116,248.79862519999998,1171,39283,0.862427427307537,2.262876331096602e-05,1186.4172687942876,40492.15126050342,2777,0.036341793877411425,0.0362168988269539,2837.3403701102543
117,249.33184692499998,1164,39614,0.8621956715984717,2.2423814605942046e-05,1186.5885524020703,40808.56082810405,2779,0.036214460588596405,0.036177272562701056,2849.1408412421024
118,249.8649633,1187,40216,0.8614594306460737,2.2072290620976033e-05,1186.95293211622,41163.781580555966,2807,0.03575711080598117,0.03614352709875917,2862.99898072431
119,250.397974325,1196,40667,0.861591555373828,2.182847040545788e-05,1187.0512808896917,41565.846565040316,2849,0.03608246158022188,0.03611211319380103,2878.704749824403
