,x_(nm),baseline_dark,baseline_light,baseline_dark_smoothed,baseline_light_smoothed,raw_signal,calibrated_signal,calibrated_signal_smoothed,raw_signal_smoothed
0,186.23,1388,1406,1457.6706793021997,4719.209204081593,1346,-2.3333333333333335,,1330.9593993378664
1,186.775442325,1388,1400,1431.5463046757163,3570.482150570297,1340,-4.0,,1330.7610499255327
2,187.3207793,1383,1392,1409.075170038988,2567.1855211105762,1335,-5.333333333333333,,1330.8637017264564
3,187.86601092499998,1381,1386,1390.1194348566712,1704.1626279991287,1326,-11.0,,1331.2522751722838
4,188.41113719999998,1382,1389,1374.541258593423,976.2567835326513,1321,-8.714285714285714,,1331.9116906946613
5,188.956158125,1375,1393,1362.2028007138995,378.31130000784106,1315,-3.3333333333333335,,1332.826868725235
6,189.50107369999998,1374,1399,1352.966220682758,-94.83051027860347,1316,-2.32,,1333.9827296956514
7,190.045883925,1396,1407,1346.6936779646549,-448.3253350299856,1338,-5.2727272727272725,,1335.3641940375564
8,190.59058879999998,1408,1410,1343.2473320242466,-687.3298619496072,1342,-33.0,,1336.9561821825969
9,191.135188325,1400,1423,1342.4893423261904,-817.0007787407721,1343,-2.4782608695652173,,1338.7436145624188
10,191.67968249999998,1401,1437,1344.2818683351427,-842.4947731067823,1354,-1.3055555555555556,,1340.7114116086684
11,192.22407132499998,1388,1431,1348.4870695157601,-768.9685327509378,1348,-0.9302325581395349,,1342.844493752992
12,192.7683548,1385,1426,1354.9671053326992,-601.578745376547,1337,-1.170731707317073,,1345.127781427036
13,193.312532925,1388,1415,1363.584135250617,-345.4820986869072,1336,-1.9259259259259258,,1347.5461950624467
14,193.8566057,1398,1408,1374.2003187341702,-5.835280385323131,1345,-5.3,,1350.0846550908702
15,194.400573125,1409,1422,1386.6778152480153,412.20502182490054,1359,-3.8461538461538463,,1352.728081943953
16,194.9444352,1419,1431,1400.878784256809,903.4821202404655,1359,-5.0,,1355.4613960533413
17,195.488191925,1435,1435,1416.6653852252077,1462.8393271580662,1361,-inf,,1358.2695178506815
18,196.0318433,1441,1434,1433.8997776178687,2085.119954874403,1370,10.142857142857142,,1361.1373677676197
19,196.575389325,1428,1438,1452.4441208994485,2765.16731568617,1367,-6.1,,1364.0498662358023
20,197.11883,1417,1432,1472.1605745346037,3497.8247218900688,1355,-4.133333333333334,,1366.9919336868757
21,197.662165325,1424,1436,1492.9112979879908,4277.935485782792,1363,-5.083333333333333,,1369.9484905524857
22,198.2053953,1425,1447,1514.5584507242665,5100.342919661038,1372,-2.409090909090909,,1372.9044572642792
23,198.74851992499998,1417,1431,1536.9641922080882,5959.890335821502,1363,-3.857142857142857,,1375.8447542539025
24,199.2915392,1420,1434,1559.9906819041116,6851.4210465608885,1363,-4.071428571428571,,1378.7543019530015
25,199.83445312499998,1436,1463,1583.5000792769636,7769.778364175711,1394,-1.5555555555555556,-inf,1381.6180207931964
26,200.3772617,1457,2642,1604.1288364402058,8573.27101406584,1399,-0.048945147679324896,-inf,1384.4711771500788
27,200.919964925,1575,7413,1624.887585222737,9392.75211216544,1394,-0.031003768413840355,-inf,1387.0265917687564
28,201.4625628,1718,13079,1645.4683231782963,10228.706856327239,1397,-0.02825455505677317,-inf,1388.9960361502824
29,202.005055325,1782,15402,1666.2060522321817,11078.422206618287,1398,-0.028193832599118944,-inf,1390.7931096966822
30,202.5474425,1817,16410,1687.0366033205414,11939.125461505128,1400,-0.028575344343178235,-inf,1392.6637296427737
31,203.089724325,1828,17114,1707.58855240206,12808.347437087798,1400,-0.02799947664529635,-inf,1394.1374889578203
32,203.63190079999998,1830,17801,1727.8425105891083,13687.529796824128,1403,-0.026735958925552562,-inf,1395.2785567056744
33,204.173971925,1843,18340,1748.3749575301485,14574.862896101558,1404,-0.026610898951324482,-inf,1397.0140207025936
34,204.71593769999998,1857,18690,1769.10691068877,15458.815080748984,1408,-0.02667379552070338,-inf,1398.6827334707202
35,205.257798125,1862,18926,1789.161317357097,16331.259462275164,1411,-0.02642991092358181,-inf,1399.9611995741423
36,205.7995532,1862,19287,1808.5439307798244,17188.330766268442,1409,-0.02599713055954089,-inf,1401.3261908536729
37,206.34120292499998,1876,19896,1827.2863938027695,18031.512333234834,1408,-0.02597114317425083,inf,1402.6015764796214
38,206.88274729999998,1892,20584,1845.249813132765,18857.827266755397,1410,-0.025786432698480632,inf,1403.2522140931574
39,207.424186325,1884,20918,1861.7845930824803,19656.493374707996,1403,-0.02527056845644636,inf,1403.6328795668942
40,207.96552,1876,21113,1877.4074610976104,20426.03676187417,1396,-0.02495191557935229,inf,1404.1911481573495
41,208.506748325,1879,21434,1892.3909261817575,21169.359419238986,1402,-0.024392738430069037,inf,1405.217264264169
42,209.0478713,1894,21828,1906.440349724759,21881.721669799575,1408,-0.02438045550316043,inf,1405.8631905592156
43,209.588888925,1904,22305,1919.4966816915075,22556.62078416229,1403,-0.02455761972452331,-0.055877659667321285,1406.3947994291789
44,210.12980119999997,1913,22719,1931.5428209019087,23192.153434958447,1391,-0.025088916658656157,0.3503295831394012,1407.4828421934542
45,210.670608125,1930,23161,1941.7817391107014,23773.419647103667,1390,-0.02543450614667232,0.29493838299678565,1408.6821672064787
46,211.2113097,1938,23467,1950.1386441368627,24297.57204013634,1394,-0.025268242835245484,0.27297279505243544,1409.449953566305
47,211.751905925,1935,23599,1956.978912319607,24761.849917324944,1404,-0.024510709010339735,0.20030664426062303,1409.7116129470387
48,212.29239679999998,1926,23885,1961.6852023828021,25154.63666221157,1406,-0.02368049546882827,0.1877968127713155,1409.9018324310587
49,212.83278232499998,1934,24305,1964.063398944446,25481.347799496667,1412,-0.023333780340619552,0.11674857219478413,1410.0274298398335
50,213.37306249999997,1947,24742,1964.7259507576243,25744.765974313763,1408,-0.023645536301820574,0.01790563299009624,1410.1178282633537
51,213.91323732499998,1949,25264,1963.7782962241124,25938.939930688757,1407,-0.02324683680034313,-0.022412073014551906,1410.3318308455189
52,214.45330679999998,1960,25849,1961.6409205191137,26100.922648304102,1411,-0.022981288459123447,-0.022722772205810197,1410.5865591519357
53,214.993270925,1974,26331,1960.897483521673,26351.683956601006,1426,-0.022498665681323644,-0.02257626420462688,1410.1899023760177
54,215.5331297,1976,26808,1963.166006025014,26740.018211057497,1422,-0.02230992268041237,-0.022368647205097708,1409.4610523454396
55,216.07288312499998,1979,27286,1967.9874289338,27179.848807446986,1410,-0.022483897735804323,-0.022171042956368493,1409.9073365194865
56,216.61253119999998,1982,27742,1974.1373757049612,27631.762893836254,1410,-0.02220496894409938,-0.022001634581308147,1410.9789349701875
57,217.152073925,1987,28022,1980.461550657961,28098.765476001183,1414,-0.02200883426157096,-0.0218210519676241,1412.3647874243768
58,217.69151129999997,1994,28208,1986.757978663125,28587.879634872268,1409,-0.022316319523918517,-0.021612412332091373,1413.834492287454
59,218.230843325,1993,28635,1993.5148247978052,29098.032707422033,1410,-0.021882741535920725,-0.0214022697702212,1415.6305012570795
60,218.77006999999998,1998,29241,2000.7412625427144,29622.194138032,1420,-0.02121645927394193,-0.02120005789590182,1417.7118168021652
61,219.30919132499997,2008,29891,2008.136605585592,30150.669075176662,1426,-0.020872933328551446,-0.02101198153238728,1419.5453804162903
62,219.84820729999998,1997,30363,2015.8569843031169,30685.33704047598,1421,-0.02030600014101389,-0.02082767175518659,1421.4971573534801
63,220.38711792499998,1993,30803,2023.9600217445081,31239.09182540881,1427,-0.0196459562651857,-0.020650243308452703,1423.4686855874154
64,220.9259232,2014,31485,2032.202903802992,31821.550748600715,1430,-0.019816090393946592,-0.02047478921068116,1425.103603705606
65,221.464623125,2024,32117,2040.3543228611807,32420.440734783853,1428,-0.01980527032864786,-0.02029439300571935,1426.509683118503
66,222.0032177,2024,32540,2048.5635688237167,33023.276744659495,1422,-0.019727356141040764,-0.020128252453697683,1427.4572017485964
67,222.54170692499997,2031,32965,2056.4756393122893,33628.50288794698,1432,-0.01936380681450831,-0.019950743902161523,1428.414573376493
68,223.0800908,2046,33454,2064.394051960367,34238.24603048702,1436,-0.019421803362200712,-0.019763439732754014,1429.8386599922715
69,223.61836932499997,2051,33843,2072.367528143293,34849.577317718875,1424,-0.019721942627075995,-0.019589524434398698,1431.053976307477
70,224.1565425,2060,34606,2080.6199460916046,35456.03730548756,1413,-0.019879555091255455,-0.01944522574215311,1432.0192076830458
71,224.69461032499999,2068,35348,2089.0751545900976,36055.58264060272,1408,-0.019831730769230768,-0.019319772583976637,1433.0020159006722
72,225.23257279999999,2078,36077,2097.746766631141,36640.84728985864,1426,-0.019177034618665253,-0.019207423859795143,1434.1613400076737
73,225.77042992499997,2102,37115,2106.478130874951,37202.22675485218,1434,-0.019078627938194384,-0.019105992276600384,1435.3891594373324
74,226.30818169999998,2122,37841,2114.5447915014656,37737.84192167361,1423,-0.019569416836977518,-0.019005929256533684,1436.218124985816
75,226.84582812499997,2129,38330,2122.167818070584,38249.632018844546,1417,-0.019667964973343277,-0.018907586970413913,1436.8990011098508
76,227.3833692,2144,38867,2129.586355296795,38729.152211827386,1441,-0.01914331617787218,-0.01883904420695463,1437.1330947473052
77,227.92080492499997,2150,39217,2136.642891118671,39170.92570613076,1448,-0.018938678609005315,-0.01877901927272674,1437.3397585449
78,228.45813529999998,2177,39417,2143.780425377657,39573.82101519777,1471,-0.018958109559613318,-0.018733385654343727,1437.8235520623068
79,228.99536032499998,2200,39680,2150.7750345420773,39926.64198509516,1495,-0.018810032017075772,-0.018675474553516955,1439.2664613014745
80,229.53248,2176,40166,2156.8051144985884,40220.17305035143,1465,-0.01871545143458805,-0.01862054089137245,1440.6283947541006
81,230.069494325,2168,40930,2162.2120546331325,40456.821196402314,1450,-0.01852329601155771,-0.018595254563313308,1441.4957077170213
82,230.60640329999998,2177,41387,2166.876191986187,40628.1742734822,1441,-0.018770721754654426,-0.018596426106944248,1442.0505560714578
83,231.143206925,2184,41605,2170.6548279688823,40718.70214500817,1442,-0.01882245503665559,-0.018626145872051077,1442.4993091575977
84,231.67990519999998,2185,41677,2173.9103037440973,40723.66436385797,1432,-0.01906715284108174,-0.018708158185764157,1442.7452943441249
85,232.216498125,2187,41717,2176.4511087453434,40654.68959659257,1425,-0.019276498861624084,-0.018818727122691413,1442.9311196176307
86,232.75298569999998,2190,41871,2178.1048721374927,40516.15841808343,1436,-0.019001537259645675,-0.01894398922357553,1443.1723708350987
87,233.289367925,2180,41996,2179.03205055603,40304.30342703041,1430,-0.018836648583484026,-0.019095758055321207,1443.5178599741505
88,233.8256448,2180,41851,2178.9328863620503,40011.959727286376,1427,-0.018981119709611555,-0.019273939879004966,1443.9579831932494
89,234.36181632499998,2192,41355,2177.4782894289374,39634.63944823136,1440,-0.01920179761509588,-0.01947044128557471,1444.559084010935
90,234.89788249999998,2187,40754,2175.505787220507,39190.82090194493,1441,-0.019342961599294734,-0.019726583568171304,1444.694126707259
91,235.433843325,2171,40226,2172.907970735422,38687.64778364101,1449,-0.01897253974510577,-0.02002750223407985,1444.4328750367795
92,235.9696988,2174,39675,2169.17873564516,38113.95852680621,1455,-0.01917282205807845,-0.020356706732642314,1443.950440553552
93,236.505448925,2179,38928,2164.168271081976,37470.74817096578,1446,-0.019946120982883887,-0.020701048802585414,1443.4820947246546
94,237.04109369999998,2178,38170,2158.5800584384283,36766.33692722301,1448,-0.020282284952211602,-0.021084059078006465,1442.9346078053588
95,237.576633125,2167,37382,2152.815148700949,36001.783347300494,1442,-0.02058781769132472,-0.0215282469358119,1442.0681555640845
96,238.11206719999998,2166,36499,2146.619062719386,35190.578019886525,1435,-0.02129146884921213,-0.022006841728747093,1440.9726834129604
97,238.64739592499998,2155,35518,2139.89209268609,34343.65888242023,1426,-0.02185055300782304,-0.022502591419473056,1439.715916555274
98,239.1826193,2134,34437,2132.7387483294797,33475.12213187097,1427,-0.021886512088660496,-0.022987263920246314,1438.9301682937053
99,239.71773732499997,2126,33316,2126.0256177942465,32610.40406351157,1438,-0.022058352035908946,-0.023492955338674053,1437.927495526485
100,240.25275,2125,32024,2120.19554236785,31749.77689188823,1447,-0.022676343690424428,-0.024039277660215973,1436.3530997304308
101,240.787657325,2121,30815,2114.7896894606497,30892.482660988335,1458,-0.02310587579284868,-0.02459259509257999,1434.6998120002445
102,241.3224593,2110,29696,2109.287390427829,30056.913338919898,1458,-0.02363517726382948,-0.02509705346831379,1433.8509819021674
103,241.85715592499997,2090,28529,2103.792430179579,29243.70266597149,1452,-0.024131018571050343,-0.025569029990667014,1433.3248544700625
104,242.3917472,2079,27508,2099.130897642036,28453.103377199397,1433,-0.025404066223602972,-0.02602394081165687,1433.3578790006295
105,242.92623312499998,2084,26700,2095.1479761715605,27702.87102765582,1429,-0.026608709782255442,-0.026437885271025776,1434.2374459217374
106,243.46061369999998,2078,25732,2090.945910439608,27019.879068608057,1429,-0.027437219920520842,-0.02680513147702839,1434.7053613898113
107,243.994888925,2075,24960,2087.024983578297,26412.0043262583,1434,-0.028009613283810356,-0.02713375541363636,1434.7985458334003
108,244.52905879999997,2079,24512,2084.1313733039983,25872.418197467174,1437,-0.028618553024562027,-0.027441456422970897,1434.6408978685538
109,245.063123325,2073,24121,2082.191442614742,25410.714059208105,1434,-0.0289822206095791,-0.027713760520204044,1434.4688214908329
110,245.59708249999997,2064,23577,2080.8511404561427,25042.04695463043,1431,-0.029424069167480128,-0.027945574504400127,1433.8305057871928
111,246.130936325,2066,23104,2080.453124646045,24783.813381956083,1434,-0.030040878410495294,-0.02812777738840281,1433.1453034043532
112,246.66468479999997,2069,22907,2081.3543681623196,24647.50021517994,1433,-0.030521163259429888,-0.02825245779651225,1432.8163265305848
113,247.19832792499997,2060,22920,2083.3831796869295,24639.428050464998,1420,-0.030680728667305847,-0.028329175767149606,1432.0903531223532
114,247.7318657,2067,23231,2086.3229744727682,24754.789349701678,1414,-0.030854280854280856,-0.028355439338907263,1431.012752270692
115,248.265298125,2073,23370,2090.5727423044286,24985.95275091121,1428,-0.030285955768418086,-0.0283289993566768,1430.2752270719336
116,248.79862519999998,2075,23427,2095.8563274365947,25325.51414528027,1437,-0.02988010490820532,-0.02824409762641146,1430.0055267389703
117,249.33184692499998,2086,23872,2101.3471199800274,25764.312215451726,1436,-0.02983567428623887,-0.02808133727121314,1430.29889691723
118,249.8649633,2113,24544,2108.338308908428,26315.60162178029,1444,-0.02982479604119299,-0.027864107453486362,1431.2758386373143
119,250.397974325,2130,25291,2116.821943871848,26982.02106502927,1452,-0.0292733474375027,-0.02760997415450818,1432.3157489410585
120,250.93087999999997,2126,26214,2127.0102154068763,27763.64694557015,1452,-0.02798073729657921,-0.027311680972598285,1433.9166912047563
121,251.46368032499998,2136,27435,2138.896328342617,28653.370721873107,1447,-0.02723427803470493,-0.026977495482220913,1435.8147409907085
122,251.99637529999998,2152,28711,2151.779360800883,29629.54864209778,1443,-0.02669528220189013,-0.026614265198072858,1437.5948719110008
123,252.52896492499997,2171,29936,2165.602799610369,30681.299463180912,1441,-0.026292094363407167,-0.026216512331614688,1439.7417608552578
124,253.06144919999997,2180,31058,2180.2973113773396,31802.30138847931,1456,-0.025070988295588337,-0.025776152906572484,1442.5416430722955
125,253.593828125,2174,32310,2196.184398287575,32992.52030623507,1466,-0.023493496150783118,-0.025293100564285565,1446.5607828036598
126,254.1261017,2172,33778,2213.006681918008,34240.78429862445,1463,-0.022432449534898438,-0.024774942649198124,1451.8407891458191
127,254.65826992499998,2200,35077,2229.8819678814493,35528.188112980366,1461,-0.022477719986616785,-0.02421274977051296,1458.2753403247812
128,255.19033279999996,2222,36555,2247.3049446193145,36841.73670977754,1461,-0.022165263740424664,-0.023628042364035966,1465.6440915988758
129,255.722290325,2244,38260,2264.948583206824,38173.305352328876,1473,-0.02140715237672146,-0.0230228084179062,1473.8796348727888
130,256.2541425,2277,39798,2282.7144669187996,39518.357539241355,1483,-0.021161482902907706,-0.022413319357431873,1483.0141566060101
131,256.78588932499997,2298,40988,2300.565743278399,40862.05293438052,1482,-0.02109072111656759,-0.02180247539236147,1493.287163922144
132,257.3175308,2318,42577,2317.9710072707885,42182.061564247524,1491,-0.0205419906107951,-0.021189920865564302,1504.5602165394175
133,257.849066925,2332,44545,2335.240549049763,43467.48968266469,1501,-0.01968587875772866,-0.02058512221876612,1516.7761897211421
134,258.3804977,2350,46361,2352.634465106752,44720.4405309285,1514,-0.0189952511872032,-0.01998569450401991,1530.4824118326283
135,258.91182312499996,2378,47831,2369.7635507032546,45942.11218827066,1533,-0.018590632081490772,-0.0193867634779335,1545.6101610455207
136,259.4430432,2399,48891,2386.3968606309995,47114.78377766111,1541,-0.018454787920502452,-0.01880669424407342,1561.5626401503698
137,259.974157925,2411,49836,2402.7820788692375,48234.36739223899,1555,-0.01804955192409067,-0.01824534210688751,1579.1202292237347
138,260.5051673,2415,50679,2419.2066864481176,49305.10278828418,1581,-0.01727996021879662,-0.017700836298447514,1598.7184987202122
139,261.03607132499997,2436,51510,2434.365738748283,50307.92489071004,1612,-0.01679096874108489,-0.017163487974890576,1619.3550023782789
140,261.56687,2459,52267,2448.5222768352155,51240.30958798515,1641,-0.016423064567940893,-0.016641756735579695,1640.8348999977034
141,262.097563325,2477,53138,2461.7666991324363,52098.098484675895,1658,-0.016166281755196306,-0.016115360555998028,1663.9696255860515
142,262.62815129999996,2513,54395,2473.570114838341,52866.27996104001,1682,-0.016017115762692262,-0.01557741849866153,1688.868921153335
143,263.158633925,2525,55164,2484.132030170511,53554.042379214814,1704,-0.015596800851079997,-0.015038473420898925,1715.332374459185
144,263.6890112,2540,55511,2494.604566354796,54161.62486126422,1735,-0.015196994581941061,-0.014511912877181135,1743.8004258306762
145,264.219283125,2541,55614,2504.0899680626485,54676.505787219496,1763,-0.014659054509826089,-0.01396759669468822,1774.2704704522976
146,264.7494497,2527,55657,2511.6623706085725,55108.95757548196,1795,-0.013777526821005082,-0.013385301291548279,1806.0988470859697
147,265.27951092499995,2543,56080,2518.636141248904,55479.55267389869,1844,-0.013056390907223043,-0.012795710100756794,1839.3726245214714
148,265.8094668,2549,56526,2524.813585811635,55785.36607850581,1878,-0.012431220705115141,-0.012194404056792015,1874.093116491844
149,266.33931732499997,2541,56793,2529.9139731363753,56008.24906566292,1915,-0.011538745115387451,-0.011579654463333248,1909.8498493736752
150,266.8690625,2527,56646,2533.673559989985,56136.53899295459,1947,-0.01071712337626342,-0.010917101342241341,1947.302113298112
151,267.398702325,2523,56237,2535.63303812086,56186.109130443554,1980,-0.010109096324980452,-0.010182001139855772,1986.8816507734791
152,267.9282368,2544,56064,2536.037667897299,56179.03171079645,2024,-0.009715994020926755,-0.009400530804216024,2027.8851842623453
153,268.457665925,2538,55974,2535.73686833219,56107.62857595761,2070,-0.008758140579384684,-0.008615680086577931,2069.612584656464
154,268.9869897,2526,55645,2534.244830007426,55972.16784072012,2116,-0.00771851879741712,-0.007807592867269304,2111.907585675739
155,269.516208125,2518,55109,2531.657500736095,55786.04591270363,2148,-0.007035424312144664,-0.006951084212259278,2155.580828557797
