,x_(nm),baseline_dark,baseline_light,baseline_dark_smoothed,baseline_light_smoothed,raw_signal,calibrated_signal,calibrated_signal_smoothed,raw_signal_smoothed
0,186.23,1272,1277,1262.87798931861,4423.341725401679,1210,-12.4,,1189.1612358537984
1,186.775442325,1267,1267,1266.7765350939594,3337.9588251104515,1205,-inf,,1193.0415113311883
2,187.3207793,1270,1275,1270.548685579698,2389.7938500541472,1192,-15.6,,1196.832335991967
3,187.86601092499998,1276,1285,1274.194247732958,1573.9994752101907,1183,-10.333333333333334,,1200.5352434055374
4,188.41113719999998,1286,1281,1277.7130285108717,885.728375556007,1183,20.6,,1204.1517671413017
5,188.956158125,1285,1286,1281.1048348705708,320.1332260690215,1188,-97.0,,1207.6834407686626
6,189.50107369999998,1276,1293,1284.3694737691878,-127.63329827334019,1201,-4.411764705882353,,1211.131797857023
7,190.045883925,1276,1298,1287.506752163855,-462.41852249365365,1222,-2.4545454545454546,,1214.4983719757852
8,190.59058879999998,1284,1305,1290.5164770117042,-689.0697716144932,1233,-2.4285714285714284,,1217.784696694352
9,191.135188325,1296,1314,1293.3984552698676,-812.4343706584332,1229,-3.7222222222222223,,1220.9923055821257
10,191.67968249999998,1305,1314,1296.1524938954776,-837.3596446480497,1229,-8.444444444444445,,1224.1227322085094
11,192.22407132499998,1294,1303,1298.778399845666,-768.6929186059151,1234,-6.666666666666667,,1227.1775101429052
12,192.7683548,1292,1304,1301.2759800775652,-611.2815175546057,1235,-4.75,,1230.1581729547158
13,193.312532925,1300,1306,1303.6450415483073,-369.97276651669745,1224,-12.666666666666666,,1233.066254213344
14,193.8566057,1301,1301,1305.8853912150246,-49.6139905147611,1231,-inf,,1235.9032874881925
15,194.400573125,1294,1300,1307.996836034849,344.9474854286236,1238,-9.333333333333334,,1238.6708063486637
16,194.9444352,1298,1299,1309.9791829649128,808.8643362908842,1242,-56.0,,1241.3703443641602
17,195.488191925,1314,1305,1311.832238962348,1337.2892370494465,1253,6.777777777777778,,1244.0034351040847
18,196.0318433,1324,1318,1313.5558109842868,1925.3748626817346,1263,10.166666666666666,,1246.5716121378396
19,196.575389325,1320,1322,1315.1497059878616,2568.273888165175,1267,-26.5,,1249.0764090348277
20,197.11883,1310,1309,1316.6137309302042,3261.1389884771916,1259,51.0,,1251.5193593644515
21,197.662165325,1320,1310,1317.9476927684468,3999.1228385952154,1248,7.2,,1253.9019966961137
22,198.2053953,1326,1310,1319.1513984597218,4777.378113496662,1243,5.1875,,1256.225854599217
23,198.74851992499998,1318,1311,1320.2246549611614,5591.057488158962,1234,12.0,,1258.4924666431637
24,199.2915392,1324,1325,1321.1672692298973,6435.313637559533,1241,-83.0,,1260.7033663973566
25,199.83445312499998,1341,1337,1321.9790482230376,7305.299236675663,1265,19.0,,1262.8600874311746
26,200.3772617,1342,2442,1322.703209585696,8065.419986862515,1258,-0.07636363636363637,,1265.8511631067279
27,200.919964925,1323,6979,1322.827515912,8840.188656594544,1256,-0.011845827439886845,-inf,1268.1920315295686
28,201.4625628,1326,12309,1322.644589911411,9633.733334843186,1272,-0.004916689429117728,-inf,1269.8755577702536
29,202.005055325,1332,14507,1322.5908854107427,10443.896600149294,1283,-0.0037191650853889945,-inf,1271.6924958662466
30,202.5474425,1323,15451,1322.7450451878613,11263.176221431753,1289,-0.002406568516421291,-inf,1273.6393349792502
31,203.089724325,1321,16142,1322.6836168429384,12090.710684273476,1282,-0.0026314013899197087,-inf,1275.1286552356546
32,203.63190079999998,1323,16824,1322.119187297535,12928.792430179372,1282,-0.0026449906457647896,-inf,1276.1831525062612
33,204.173971925,1320,17323,1321.4586740356265,13773.65811230126,1279,-0.0025620196213210025,-inf,1278.079073138665
34,204.71593769999998,1321,17661,1320.7483068698925,14616.570296042664,1279,-0.0025703794369645043,inf,1280.5523341411792
35,205.257798125,1323,17911,1320.4184013227682,15450.602459851569,1285,-0.002290812635640222,inf,1282.665858796324
36,205.7995532,1322,18282,1320.4342567215313,16269.837980474897,1284,-0.002240566037735849,inf,1284.5820743391453
37,206.34120292499998,1321,18865,1319.9507123603908,17076.155949171793,1286,-0.001994984040127679,inf,1286.480509184781
38,206.88274729999998,1321,19495,1319.2034247661074,17868.754173367117,1284,-0.0020358754264333664,inf,1288.0601146118581
39,207.424186325,1326,19826,1318.6979999546736,18637.295816439426,1277,-0.0026486486486486487,inf,1289.0428775283453
40,207.96552,1320,20034,1318.169562164463,19377.933090216844,1290,-0.0016030779095864058,0.6015350716791424,1290.5126050419922
41,208.506748325,1313,20322,1317.1063897256763,20092.3754784929,1304,-0.0004734599400284076,0.610758378825724,1292.052118960767
42,209.0478713,1312,20706,1315.6420756981784,20777.152891344816,1301,-0.0005671857275446014,-0.9342327944295408,1293.2245803981725
43,209.588888925,1305,21195,1314.4496591089014,21428.0648712311,1290,-0.0007541478129713424,-0.7682524064484895,1294.3201884527148
44,210.12980119999997,1291,21555,1313.969308478083,22041.482842193054,1283,-0.00039478878799842083,-0.4521417539957645,1295.7570046886433
45,210.670608125,1291,21954,1313.5232734603023,22604.78135405062,1287,-0.0001935827324202681,-1.2623266441581922,1297.6334231805681
46,211.2113097,1303,22324,1312.9514598291898,23115.100138168033,1286,-0.0008087150944293801,0.28387871728697456,1299.3388298715463
47,211.751905925,1311,22496,1312.6441142494482,23568.13574486353,1295,-0.0007552513570922823,0.7139558638118776,1300.200027180659
48,212.29239679999998,1315,22756,1312.2596887811476,23953.851548165974,1316,4.663961568956672e-05,1.1310254943272957,1300.63661691089
49,212.83278232499998,1314,23144,1311.6193118756685,24278.707060182092,1316,9.161704076958314e-05,1.8106811740456756,1300.6454732836282
50,213.37306249999997,1309,23586,1311.2482049423293,24543.16340120907,1299,-0.0004488934775777708,-0.505064886382599,1300.466782939566
51,213.91323732499998,1306,24156,1311.1278171645768,24740.403497247484,1297,-0.0003938730853391685,0.0016339277375638148,1300.3473011846
52,214.45330679999998,1314,24765,1311.021631294002,24907.96992004301,1313,-4.2642104814293634e-05,-0.00021841344398022534,1299.6860178033228
53,214.993270925,1321,25171,1310.1797775713806,25158.115767061056,1321,0.0,-0.0004116483837347218,1298.3997146027973
54,215.5331297,1317,25547,1309.551360166683,25535.58567577926,1302,-0.0006190672719768881,-0.000454171721139732,1296.9563750028062
55,216.07288312499998,1315,26065,1310.151147251328,25963.812204126436,1287,-0.0011313131313131313,-0.00048023497676052463,1296.6328342657569
56,216.61253119999998,1317,26527,1311.1794151622662,26406.61550657948,1296,-0.0008330027766759223,-0.00047614611933376877,1297.1136152573988
57,217.152073925,1320,26792,1312.3994880971004,26864.60651430332,1316,-0.000157035175879397,-0.0004808519106144849,1297.7381367641149
58,217.69151129999997,1317,27038,1313.5565924482746,27341.80665473684,1304,-0.0005054235838419968,-0.0004891475002848175,1298.3218192937304
59,218.230843325,1321,27450,1314.196652245779,27837.983533035323,1291,-0.0011481495656167477,-0.0005004727205799142,1298.3804616185848
60,218.77006999999998,1316,27993,1314.88645269426,28349.428775283155,1294,-0.0008246804363309218,-0.00051877887604372,1298.4036784524883
61,219.30919132499997,1310,28640,1315.744999886722,28867.26374323259,1295,-0.0005488474204171241,-0.0005416215178397532,1298.4146866293438
62,219.84820729999998,1312,29111,1316.697954653534,29391.862601643872,1295,-0.0006115327889492428,-0.0005734077173474427,1298.2979682438765
63,220.38711792499998,1314,29490,1317.7724297265822,29934.118507779895,1302,-0.00042589437819420784,-0.0006063223830061284,1298.2358830324333
64,220.9259232,1309,30101,1318.6446125619807,30505.03864187126,1306,-0.00010419560989163657,-0.0006396428986561938,1298.1044417766857
65,221.464623125,1306,30736,1319.540351989827,31092.992751817113,1289,-0.0005776418620455318,-0.0006855963765151785,1298.043330539738
66,222.0032177,1312,31198,1320.2965412579872,31683.82690434603,1285,-0.0009034330455731781,-0.0007175226232820584,1297.9465673061427
67,222.54170692499997,1326,31636,1321.0603411175537,32274.32705157473,1294,-0.0010557571758495546,-0.000724675269269274,1298.225712926655
68,223.0800908,1333,32077,1321.8344016851768,32867.11046682761,1303,-0.000975800156128025,-0.0007300262041633666,1298.6385422093117
69,223.61836932499997,1321,32498,1322.2109447552352,33461.62578993797,1299,-0.0007056483946499022,-0.0007306333483287251,1298.9307798590885
70,224.1565425,1317,33211,1322.0995719042082,34051.69931368708,1285,-0.0010033235091239732,-0.0007167006663335805,1299.0985299780043
71,224.69461032499999,1310,33895,1321.6400597974784,34634.05307028405,1277,-0.0010127359214362436,-0.0006940956627402577,1299.127069695778
72,225.23257279999999,1309,34626,1321.0332963373776,35201.1868898496,1287,-0.0006603235585436864,-0.0006726164211641643,1299.1959274275498
73,225.77042992499997,1318,35608,1320.6362318512056,35745.29096921719,1288,-0.0008748906386701663,-0.0006432456565546728,1299.7197218509793
74,226.30818169999998,1320,36270,1320.6828014224304,36264.419737705706,1283,-0.0010586552217453505,-0.0006080814049821073,1300.6252916260594
75,226.84582812499997,1318,36777,1320.5931731182789,36758.74864662776,1285,-0.0009306523026594095,-0.0005793554891748279,1301.1804797390403
76,227.3833692,1331,37349,1319.9511427212142,37222.889170761926,1300,-0.0008606807707257483,-0.0005581928470204172,1301.0774422976488
77,227.92080492499997,1340,37662,1319.1839905773377,37651.47283064097,1308,-0.0008810087550245031,-0.0005311165315625235,1301.0135903417722
78,228.45813529999998,1355,37945,1318.7655892545445,38041.054066909055,1325,-0.0008198961464881115,-0.00048140077160234115,1301.8657274230197
79,228.99536032499998,1360,38295,1318.60513261906,38379.32202314814,1349,-0.0002978204954650061,-0.000426981135225107,1303.096717932431
80,229.53248,1332,38719,1318.5940564904954,38657.7668803363,1327,-0.00013373632546072165,-0.0004050372741373111,1303.7065845205755
81,230.069494325,1311,39338,1318.8033704047405,38880.25454710111,1308,-7.88913140663213e-05,-0.0004023163607298489,1304.0799791614509
82,230.60640329999998,1301,39762,1318.992480010847,39038.290765362,1295,-0.00015600218403057642,-0.0003966956071324858,1304.5307707988604
83,231.143206925,1303,40065,1319.2571519173455,39117.569254115995,1293,-0.00025798462411640266,-0.0003788024667463538,1305.4273482977846
84,231.67990519999998,1317,40170,1319.1954744161562,39115.97501642091,1305,-0.000308856458960698,-0.0003640683820184421,1305.9296020294662
85,232.216498125,1317,40155,1318.889918231418,39042.67489637289,1304,-0.0003347237241876513,-0.00035832915188012133,1305.922761557428
86,232.75298569999998,1314,40245,1318.3241296518354,38900.12351355562,1309,-0.00012843235467879067,-0.00035938217575475195,1305.5730820629888
87,233.289367925,1310,40352,1317.5134204624994,38686.67147613688,1312,5.122688386865427e-05,-0.000339737414783906,1305.4692292010893
88,233.8256448,1304,40224,1316.9321388932678,38394.11848512916,1312,0.00020554984583761563,-0.0003206586848158562,1305.5951437178394
89,234.36181632499998,1310,39657,1316.338761919837,38017.02695417717,1312,5.215531853860798e-05,-0.0003095363782364382,1305.6194024779475
90,234.89788249999998,1315,39005,1315.7108654782417,37571.7703232229,1300,-0.00039798355001326613,-0.00030058741338623133,1305.6752361321635
91,235.433843325,1315,38502,1315.0506466737384,37067.37035946383,1312,-8.067335359130878e-05,-0.00030306276755259987,1305.372556569773
92,235.9696988,1307,37996,1314.5461505356607,36496.790142471385,1315,0.00021804900651421408,-0.0003168867596979513,1304.900813155426
93,236.505448925,1303,37311,1314.0192529841875,35861.013952750225,1310,0.00019440124416796267,-0.0003238705581943494,1304.4934653106275
94,237.04109369999998,1306,36568,1313.3498153978321,35165.893474370205,1303,-8.507742045261188e-05,-0.0003200712756139399,1304.179573716254
95,237.576633125,1303,35714,1312.5041563795078,34411.74925819319,1297,-0.0001743628490889541,-0.0003264353044654986,1303.4986975922197
96,238.11206719999998,1308,34803,1311.6607171170103,33609.58255000049,1302,-0.00017913121361397223,-0.0003417642637910643,1302.4904074837232
97,238.64739592499998,1321,33918,1310.7404244716502,32772.731613399446,1296,-0.0007669417431051937,-0.00035192174413556935,1301.4758658180006
98,239.1826193,1321,32875,1309.8198147183152,31918.764887086298,1285,-0.0011409013120365088,-0.00034485435703843426,1300.9403157489162
99,239.71773732499997,1309,31735,1309.2047838002875,31068.46589956677,1291,-0.0005915992900808519,-0.00034817734988717167,1300.3352963826792
100,240.25275,1311,30477,1308.790368977755,30219.236857006377,1305,-0.0002057189878625797,-0.00036374622578128426,1299.4812793041497
101,240.787657325,1324,29236,1308.352850574167,29375.981743640292,1313,-0.0003940957294353683,-0.00037478905193936415,1298.6901855081405
102,241.3224593,1325,28131,1308.2519422863234,28555.435321297784,1311,-0.0005222711333283594,-0.0003812179143017972,1298.326598563929
103,241.85715592499997,1321,27053,1308.636752814308,27756.315137375168,1297,-0.000932690812995492,-0.0003910430809617667,1298.2765634555462
104,242.3917472,1320,26069,1309.4406894833153,26979.51675009575,1294,-0.0010505474968685604,-0.0003933927657755978,1298.8470633536185
105,242.92623312499998,1311,25235,1310.1787809463156,26244.31350653419,1297,-0.0005851864236749708,-0.00037485123211458465,1300.0752678429617
106,243.46061369999998,1299,24332,1310.449364651496,25572.617748985896,1287,-0.0005209916207181001,-0.0003538920387101792,1300.8932478651586
107,243.994888925,1298,23611,1310.1429477451109,24972.012956125374,1289,-0.0004033523058306817,-0.00032514150186769273,1301.3969738838682
108,244.52905879999997,1295,23156,1309.668984574937,24440.073704953214,1293,-9.148712318741138e-05,-0.00029722643458801834,1301.663027475116
109,245.063123325,1300,22747,1309.7363700196806,23988.53507440666,1295,-0.00023313283909171445,-0.00028102103324690377,1301.9351287684633
110,245.59708249999997,1311,22197,1310.028992729142,23631.850143830667,1298,-0.0006224265057933544,-0.0002608799929044001,1302.5695938752613
111,246.130936325,1315,21729,1310.1515776121519,23383.65344628373,1312,-0.00014695797002057411,-0.00024005375553694713,1303.0410428322023
112,246.66468479999997,1317,21519,1310.4473261002265,23254.15203062313,1305,-0.000594000594000594,-0.00022358900993836003,1303.4025685745746
113,247.19832792499997,1310,21558,1310.9550612697658,23248.96477836373,1296,-0.000691426313709996,-0.0002079050859342541,1303.8397472196175
114,247.7318657,1311,21864,1310.9293755237695,23364.615891639227,1306,-0.00024327348805527175,-0.00018319353803822208,1304.0634895467372
115,248.265298125,1305,22051,1310.7767786359575,23592.55903870937,1311,0.0002892123782897908,-0.00015208749698929582,1304.4499082651678
116,248.79862519999998,1299,22170,1311.1104215270764,23924.827855670115,1307,0.00038330698097839105,-0.0001314688557159375,1304.8988199052956
117,249.33184692499998,1295,22579,1311.3582867108855,24352.443656707506,1307,0.0005638037962788949,-9.721261448431067e-05,1305.7393372443069
118,249.8649633,1308,23184,1311.3554780402476,24889.580149040274,1313,0.00022856098006948254,-4.928779877035185e-05,1306.8219891730027
119,250.397974325,1323,23871,1311.1011121429453,25544.732995084334,1321,-8.869966294128082e-05,4.980275466212384e-06,1307.9476998346258
120,250.93087999999997,1321,24836,1310.6240684952975,26316.499716867373,1334,0.0005528386136508612,5.3748050513294496e-05,1308.693084781057
121,251.46368032499998,1319,26109,1310.2506512038526,27193.225146661916,1335,0.000645421540943929,0.00010293595021217632,1309.6235475321955
122,251.99637529999998,1315,27337,1309.8833948673557,28151.869759223908,1328,0.0004995772807624318,0.00016669172562835922,1311.2968130648235
123,252.52896492499997,1313,28433,1309.721488595413,29186.903893632363,1321,0.0002949852507374631,0.00021029319366993503,1312.4605087317693
124,253.06144919999997,1311,29503,1309.6737638451355,30292.20437608948,1324,0.0004611237230419977,0.00023857961926596023,1313.2757027338987
125,253.593828125,1306,30778,1309.5337606740559,31466.223515820824,1327,0.0007125407166123778,0.0002896727949270173,1315.0475661962646
126,254.1261017,1304,32147,1309.720559922057,32699.457518855972,1326,0.0007132898874947313,0.0003579786968278512,1317.96883281612
127,254.65826992499998,1306,33413,1310.0364674171306,33970.41627216859,1327,0.0006540629769209206,0.00042916418694955214,1321.4204398740378
128,255.19033279999996,1301,34844,1310.1655303630635,35268.16811252735,1327,0.0007751244671019288,0.0004998869366101869,1324.8873360664766
129,255.722290325,1307,36607,1310.1986228453395,36586.67795419985,1328,0.000594900849858357,0.000567415945649495,1328.65267616478
130,256.2541425,1324,38183,1310.2285668984323,37920.7932455994,1340,0.00043408665454841425,0.0006487112532232357,1333.587374572445
131,256.78588932499997,1321,39445,1310.4608937914538,39254.35443611331,1344,0.0006032945126429545,0.0007503327122777814,1339.6572062787122
132,257.3175308,1324,41019,1310.5072821581211,40567.6067861099,1344,0.0005038417936767855,0.0008584618415590549,1345.989648689639
133,257.849066925,1321,42908,1310.2365172483835,41847.84146866213,1344,0.0005530574458364393,0.0009788189662011699,1352.6197422364917
134,258.3804977,1303,44684,1309.6117465854015,43096.69412670646,1345,0.0009681657868652175,0.0011284114811710073,1360.2278647307717
135,258.91182312499996,1308,46088,1308.933294072321,44315.67281252037,1349,0.0009155873157659669,0.00129941942938614,1369.2224512446228
136,259.4430432,1315,47111,1308.5037260186843,45485.84939636144,1360,0.0009826185693073632,0.0014782172993209341,1379.4253097465134
137,259.974157925,1307,48038,1308.4156153026997,46604.94373598407,1378,0.001519334060901757,0.0016890722338467586,1391.4801694262344
138,260.5051673,1294,48929,1308.860087431174,47673.60984393666,1391,0.002036317833525769,0.0018990793793370118,1404.7895082561056
139,261.03607132499997,1303,49808,1309.3365874651497,48674.05218691156,1414,0.0022884238738274405,0.002111602245301907,1418.5183582866837
140,261.56687,1312,50555,1309.6336496862646,49606.10614056849,1427,0.002335357309668379,0.0023611652127902816,1433.6498901447098
141,262.097563325,1300,51444,1309.446601281997,50467.56746472076,1431,0.002612476068921506,0.0026552366597650343,1450.2369929103436
142,262.62815129999996,1302,52797,1308.810573285893,51244.29108246975,1449,0.0028546460821438973,0.0029787980992458376,1467.7925207818696
143,263.158633925,1301,53677,1307.8703028380912,51942.1424494316,1467,0.0031693905605620896,0.0033292579833709194,1486.3146390631439
144,263.6890112,1303,53968,1306.982989422159,52559.93635189824,1486,0.0034747935061236117,0.0037003034169935762,1506.2275476227937
145,264.219283125,1312,54014,1306.4519468164376,53085.63025209983,1520,0.003946719289590528,0.004098622424489662,1527.9190921651386
146,264.7494497,1304,54063,1306.0084033613193,53531.29681306382,1538,0.004435262230140829,0.004535074949948701,1551.0453690910028
147,265.27951092499995,1307,54577,1305.6414867833676,53916.98165303754,1549,0.004542894687441337,0.005001859910637463,1575.8490339531738
148,265.8094668,1314,55076,1305.568053636524,54236.53720355963,1595,0.005226740076634054,0.005489700857701756,1602.1389838954144
149,266.33931732499997,1313,55349,1305.6349181181656,54470.41196855996,1635,0.0059589903027611225,0.005986837014776622,1628.857595868505
150,266.8690625,1305,55204,1305.718679924775,54610.32372194056,1650,0.006400860869403885,0.006522625369558848,1656.7536071031868
151,267.398702325,1294,54794,1305.5629799089197,54673.82151351,1669,0.007009345794392523,0.007096649593079091,1685.7564384243942
152,267.9282368,1302,54643,1305.1159029649345,54678.47738340515,1708,0.007611405860407566,0.007697721105004122,1715.7702552718872
153,268.457665925,1312,54550,1304.8815828217832,54617.6819860009,1761,0.008433825463015139,0.008312899237811651,1746.5521076354735
