,x_(nm),baseline_dark,baseline_light,baseline_mirror,baseline_calibration,baseline_dark_smoothed,baseline_light_smoothed,raw_signal,calibrated_signal,calibrated_signal_smoothed,raw_signal_smoothed
0,186.23,1132,1121,0.3621226043733797,-0.03292023676121633,1105.548497870362,3863.6152865919926,1115,0.5596440249406777,,1248.9854103228124
1,186.775442325,1130,1119,1.18800459154587,-0.1080004174132609,1110.488228653822,2922.908768667936,1105,2.7000104353315226,,1202.548181033419
2,187.3207793,1119,1123,1.908567993433533,0.4771419983583832,1115.1709309945552,2100.013721728016,1110,-4.294277985225449,,1162.3478584660756
3,187.86601092499998,1110,1116,1.7279185264672412,0.28798642107787353,1119.6019449773135,1390.903677374843,1114,1.1519456843114941,,1128.1592950774887
4,188.41113719999998,1107,1120,1.043047789334166,0.0802344453333974,1123.7866106868482,791.5521672110276,1108,0.0802344453333974,,1099.7573433243638
5,188.956158125,1109,1125,0.840365554154959,0.052522847134684934,1127.7302682079119,297.93272283917986,1108,-0.052522847134684934,,1076.9168556634067
6,189.50107369999998,1114,1121,0.8202728553565946,0.11718183647951351,1131.438257625256,-93.98112413809076,1113,-0.11718183647951351,,1059.412684551324
7,190.045883925,1124,1129,0.837733819880384,0.1675467639760768,1134.9159190236326,-388.2158421181716,1137,2.178107931688998,,1047.019682444821
8,190.59058879999998,1131,1157,0.8116271105193998,0.031216427327669223,1138.1685924877931,-588.7978994984546,1150,0.5931121192257153,,1039.512701800604
9,191.135188325,1143,1169,0.8262856362484797,0.03178021677878768,1141.2016181024899,-699.7537646763271,1144,0.03178021677878768,,1036.6665950753788
10,191.67968249999998,1155,1163,0.8012221689422371,0.10015277111777963,1144.0203359524746,-725.1099060491811,1155,0.0,,1038.2562147258516
11,192.22407132499998,1147,1154,0.7775424502505143,0.1110774928929306,1146.630086122499,-668.8927920144047,1137,-1.110774928929306,,1044.0564132087281
12,192.7683548,1136,1148,0.7753865851703869,0.06461554876419891,1149.0362086973153,-535.1288909693881,1130,-0.38769329258519347,,1053.8420429807143
13,193.312532925,1139,1143,0.7956261498651602,0.19890653746629006,1151.2440437616747,-327.8446713115195,1126,-2.585784987061771,,1067.3879564985164
14,193.8566057,1149,1138,0.7908861747409445,-0.07189874315826768,1153.2589314003296,-51.066601438190446,1136,0.9346836610574798,,1084.46900621884
15,194.400573125,1147,1143,0.7942231778648126,-0.19855579446620314,1155.0862116980315,291.17885025321266,1149,-0.3971115889324063,,1104.860044598391
16,194.9444352,1154,1154,0.7947581770897779,inf,1156.7312247395328,694.8652153652952,1152,-inf,,1128.3359240938757
17,195.488191925,1170,1179,0.7914877943554887,0.08794308826172097,1158.1993106095847,1155.9660255006706,1163,-0.6156016178320468,,1154.671497162
18,196.0318433,1180,1187,0.7911116722494277,0.11301595317848967,1159.4958093929392,1670.454812261949,1163,-1.9212712040343245,,1183.6416162594696
19,196.575389325,1172,1177,0.7900325230816138,0.15800650461632276,1160.6260611743485,2234.3051072517414,1152,-3.1601300923264555,,1215.0211338429906
20,197.11883,1166,1174,0.798472358442206,0.09980904480527575,1161.595406038564,2843.4904420726557,1150,-1.596944716884412,,1248.5849023692692
21,197.662165325,1173,1179,0.7981102791346143,0.13301837985576906,1162.409184070338,3493.9843483273044,1164,-1.1971654187019216,,1284.107774295011
22,198.2053953,1177,1183,0.8040599544843242,0.13400999241405404,1163.0727353544219,4181.760357618298,1170,-0.9380699468983782,,1321.364602076922
23,198.74851992499998,1166,1177,0.8074165803696804,0.07340150730633459,1163.5913999755678,4902.792001548248,1161,-0.36700753653167295,,1360.130238171708
24,199.2915392,1168,1179,0.8060625325032217,0.07327841204574742,1163.9705180185276,5653.052811719761,1162,-0.4396704722744845,,1400.1795350360755
25,199.83445312499998,1190,1203,0.8122546130835153,0.062481124083347335,1164.2154295680311,6428.516319735318,1179,-0.6872923649168207,-inf,1441.2873451267023
26,200.3772617,1184,2177,0.8144257223941842,0.0008201668906285843,1164.4955038618998,7117.1610908512985,1232,0.039368010750172044,-inf,1477.5550069083954
27,200.919964925,1153,6175,0.8150182986479615,0.0001622895855531584,1164.6941040566949,7822.4904527847375,1440,0.04657711105375646,-inf,1513.821830619011
28,201.4625628,1148,10750,0.8232603193402961,8.573842109355302e-05,1164.3397585449052,8545.232326892858,1674,0.045098409495208894,-inf,1550.260708056778
29,202.005055325,1158,12714,0.8194894939197722,7.091463256488164e-05,1164.148746290947,9284.84939636214,1773,0.043612499027402205,-inf,1587.6308636661909
30,202.5474425,1148,13584,0.8269202298982968,6.64940680201268e-05,1163.7121112595757,10037.721964257209,1811,0.04408556709734406,-inf,1625.2074112663622
31,203.089724325,1154,14246,0.8298864771900701,6.338882349450582e-05,1162.7424177217833,10803.613309474527,1843,0.04367489938771451,-inf,1662.634125348221
32,203.63190079999998,1169,14909,0.8293789756785952,6.036237086452658e-05,1161.2672540714175,11583.627013069157,1874,0.042555471459491234,-inf,1700.2646039547571
33,204.173971925,1164,15382,0.8303112569560028,5.839859733830376e-05,1159.8755804208256,12373.490384832941,1890,0.04239738166760853,-inf,1739.4011415886778
34,204.71593769999998,1155,15734,0.832804584655424,5.712357395263214e-05,1159.097714557499,13165.40234206865,1917,0.043528163351905694,-inf,1779.0871820425941
35,205.257798125,1153,16025,0.8371769300637781,5.629215506077045e-05,1158.7110693333716,13954.851638768447,1933,0.04390788094740095,-inf,1817.945774536195
36,205.7995532,1154,16427,0.8381556767340916,5.48782607695994e-05,1158.4863077306172,14736.836191079921,1944,0.04335382600798353,inf,1856.576253142731
37,206.34120292499998,1167,17003,0.840625124319978,5.308317279110748e-05,1157.9780968991147,15510.696595619082,1976,0.04294428678800595,inf,1894.1642166300117
38,206.88274729999998,1156,17628,0.8415937915656597,5.109238656906628e-05,1157.0449160796172,16274.750481324292,2007,0.043479620970275405,inf,1930.380393666864
39,207.424186325,1140,18015,0.8431564976534377,4.9964829490574086e-05,1156.1028562368122,17021.45090488993,2020,0.0439690499517052,inf,1964.7152143876042
40,207.96552,1150,18328,0.844165982526256,4.914227398569426e-05,1155.4168837346037,17747.81544315806,2033,0.04339262792936803,inf,1997.616661759005
41,208.506748325,1157,18657,0.8476484869242688,4.84370563956725e-05,1154.6732655326061,18456.243312418952,2042,0.04286679491017016,inf,2029.3887743776363
42,209.0478713,1164,19075,0.8491768105118729,4.7410910083851984e-05,1153.9773947314554,19145.239008810706,2076,0.04323874999647301,0.1647153738632102,2059.9516636843023
43,209.588888925,1160,19649,0.8502736512177026,4.59880821687329e-05,1153.6018935876018,19808.50689709808,2099,0.04318280915644019,0.2006799210305129,2088.9021948401605
44,210.12980119999997,1152,20077,0.8513731200582484,4.498669062394972e-05,1153.5377245237496,20441.566853155968,2086,0.042017569042769036,0.1929238578870513,2115.862941402936
45,210.670608125,1149,20500,0.8534308197221572,4.4102672715733405e-05,1153.8212870053462,21031.110534779546,2082,0.04114779364377927,0.13562884547447815,2140.4771795510246
46,211.2113097,1136,20877,0.8557212941711507,4.334741371618209e-05,1154.4665111327326,21577.169267706668,2106,0.04204699130469663,0.1117299638081574,2162.7401300142283
47,211.751905925,1133,21082,0.8575135521308375,4.298529009628741e-05,1155.1482479784147,22075.20279054976,2126,0.0426843930656134,0.09218502404199223,2182.575754830192
48,212.29239679999998,1145,21444,0.8580327959771828,4.226970766920453e-05,1155.84377902102,22515.6357788394,2147,0.04235424708454294,0.07446399818492873,2199.454257174526
49,212.83278232499998,1147,21966,0.8587529108532552,4.124851870182311e-05,1156.4168837346037,22901.97057690957,2156,0.04161975537013952,0.069946340424015,2213.1127092345946
50,213.37306249999997,1159,22448,0.8598387128136875,4.0388872789407086e-05,1157.1413169040982,23236.031031279992,2170,0.04083315039009056,0.06097178157761717,2223.748850483547
51,213.91323732499998,1167,22963,0.8611437003932625,3.950925400960096e-05,1158.0996172053503,23512.06729484201,2194,0.040576003867860186,0.04134217538736238,2231.0607261772207
52,214.45330679999998,1167,23588,0.8624756676121401,3.846731491067036e-05,1158.642460757866,23759.808330879066,2226,0.04073688649039991,0.04103933069749266,2236.3014790821558
53,214.993270925,1173,24137,0.8630074298534857,3.758088442141986e-05,1157.6190853699748,24080.43697478945,2265,0.041038325788190486,0.04095408297445648,2244.876622347009
54,215.5331297,1153,24617,0.8629495266956824,3.6777596603123184e-05,1156.4721964257178,24510.870869101887,2274,0.041227685792101086,0.04084162722976169,2259.1399578698974
55,216.07288312499998,1149,25149,0.8648478670709356,3.603532779462232e-05,1157.0748148315706,24982.0976692559,2291,0.04115234434145869,0.04068216395691321,2276.462479331311
56,216.61253119999998,1160,25603,0.8650803831098881,3.539174336660345e-05,1157.9396135812594,25458.754196017544,2321,0.041089814048626605,0.04053600533741729,2294.2401639900804
57,217.152073925,1176,25896,0.8652291434094919,3.500117894051343e-05,1158.931323472763,25943.16149856119,2340,0.04074137228675763,0.040398996532518584,2313.0441006590872
58,217.69151129999997,1180,26216,0.8680312398394996,3.467132288862037e-05,1160.2056218713676,26441.11388706375,2328,0.03980267867613618,0.04023699191344711,2332.5892545697075
59,218.230843325,1163,26711,0.868212549145114,3.3983581851617116e-05,1161.2537996330386,26952.93220684449,2331,0.03969282360268879,0.04005542980297568,2351.809757865365
60,218.77006999999998,1158,27252,0.868144571802742,3.3269892381495436e-05,1161.936012140683,27473.851548165912,2356,0.039857331073031535,0.039905519885542196,2371.4789009943142
61,219.30919132499997,1163,27857,0.8681762475955156,3.25232729300785e-05,1162.2566762553856,27995.175972275163,2373,0.03935316024539499,0.03977361682169565,2391.00298987515
62,219.84820729999998,1164,28386,0.868951283960652,3.192091998973815e-05,1162.594894561576,28518.655575437173,2381,0.03884775962751133,0.03964175085110957,2410.854017078483
63,220.38711792499998,1165,28863,0.8691522224557424,3.13796022259998e-05,1163.2671861197086,29053.951097419544,2402,0.038816567953561754,0.03950883214962199,2431.6542843552047
64,220.9259232,1165,29491,0.8692686507714266,3.0688012807012166e-05,1163.6184285034547,29607.282928265082,2438,0.039065840303326486,0.0393955559358123,2453.2912636752344
65,221.464623125,1164,30125,0.8701622824311823,3.0046002639107154e-05,1163.8080590726634,30171.712768125544,2470,0.039240079446673945,0.03929716592444696,2475.247163016102
66,222.0032177,1162,30571,0.86932404321908,2.9559796090281207e-05,1164.2501528913228,30740.02124623375,2492,0.03931452880007401,0.039184080117122065,2497.043534394842
67,222.54170692499997,1166,30928,0.8705973257298546,2.9251976538198194e-05,1164.7357811048723,31306.39763074981,2501,0.039051388678494586,0.039072902220725,2518.946929715234
68,223.0800908,1173,31365,0.8704844215444587,2.8831624984911855e-05,1165.5972275702509,31871.526557792316,2526,0.03900918860458574,0.03898623186729948,2541.7529728872196
69,223.61836932499997,1178,31793,0.8703398065724872,2.8428541779274448e-05,1166.2224512446264,32437.583138915328,2548,0.038947102237605995,0.038908511918666136,2564.5712926679607
70,224.1565425,1163,32533,0.8697053263836744,2.772410986240594e-05,1166.2983986047027,33001.23148882131,2563,0.03881375380736832,0.03881514441002796,2586.624498856097
71,224.69461032499999,1145,33172,0.8700422735223692,2.7165899819601247e-05,1166.2693605743962,33562.51425853296,2578,0.03892873444148859,0.038693942695892776,2607.6590183242606
72,225.23257279999999,1150,33857,0.8700397124616915,2.6601024626584265e-05,1166.1166957348755,34118.09234637186,2606,0.03873109185630669,0.03859413943388074,2628.4864662845766
73,225.77042992499997,1155,34772,0.8700678242154535,2.5881780772093092e-05,1165.9427167093029,34659.76862443024,2641,0.03846032622733033,0.03852239829051791,2649.2393032684263
74,226.30818169999998,1149,35457,0.8699872642519537,2.5358145745947117e-05,1165.6616004892298,35190.82953181204,2664,0.03841759080510988,0.038447837436019726,2669.2487712065445
75,226.84582812499997,1145,35939,0.8700242014773532,2.5005006652795114e-05,1165.2128700536596,35719.83211397698,2682,0.03843269522534609,0.038352321666826054,2688.30127522702
76,227.3833692,1162,36473,0.8696880407569096,2.4629380101297318e-05,1165.1231737977987,36240.212666197855,2722,0.038421832958023816,0.03824007104195186,2706.866724048058
77,227.92080492499997,1178,36868,0.87010037851645,2.4379388582696834e-05,1165.3577883983558,36746.814808941745,2758,0.038519433960661,0.038131661742898094,2725.3609821286486
78,228.45813529999998,1209,37146,0.8693067287349536,2.418974117858902e-05,1165.8850936600832,37241.43337334862,2786,0.038147221838634886,0.03803718653293072,2744.013680944023
79,228.99536032499998,1217,37404,0.8691277262341458,2.4017678343994966e-05,1166.8024643819567,37717.02604815438,2797,0.037947931783512044,0.037952934334968616,2762.3881628122417
80,229.53248,1173,37897,0.86926662631248,2.3670259947513342e-05,1167.1921221318494,38165.791139096415,2786,0.038180129295339024,0.03787444196372491,2779.149403157436
81,230.069494325,1153,38705,0.8686441253792921,2.313176729280177e-05,1167.1209766925415,38597.43640852493,2809,0.03830620663687973,0.03780872866818963,2795.174499988621
82,230.60640329999998,1151,39323,0.868302707705708,2.2747110649316465e-05,1167.3680944075518,39002.237785679565,2808,0.03769196234591738,0.03775043598285706,2810.5078257717637
83,231.143206925,1155,39789,0.8687016218294412,2.2485417555247742e-05,1168.1800493782196,39360.463068245415,2815,0.03732579314171125,0.03769150695054266,2824.339781195443
84,231.67990519999998,1158,40045,0.8683284847277679,2.2329531327378504e-05,1168.933067566627,39674.14086389197,2844,0.03764758981796016,0.03760643063628594,2835.3040612470854
85,232.216498125,1161,40281,0.8683608504247778,2.2197363252167123e-05,1169.1362658270632,39957.25769553027,2859,0.037691122802179775,0.037515107220148794,2844.092074565621
86,232.75298569999998,1171,40688,0.868249886800152,2.197155368069823e-05,1169.5648372556345,40212.324469409636,2884,0.03763727145503607,0.03741932177430405,2851.5965933542684
87,233.289367925,1172,41106,0.867778574191436,2.1730319381765813e-05,1170.4752089514827,40433.83104940013,2886,0.037245767420346604,0.03730968563306586,2857.7179777570864
88,233.8256448,1176,41341,0.8676471171202086,2.1602069391764186e-05,1171.5924483000522,40613.20895150435,2885,0.036917936590524995,0.03719967589145953,2862.3395320391755
89,234.36181632499998,1179,41371,0.8677489292852631,2.1590090796309295e-05,1172.7198124532604,40741.686131055416,2886,0.03685428498929997,0.037101561456029025,2865.2769711657697
90,234.89788249999998,1168,41312,0.8672589311593729,2.160369995913145e-05,1173.7165281206596,40839.006093002456,2884,0.037071949129869566,0.037010719014015765,2866.9981653038026
91,235.433843325,1167,41307,0.8668004592010585,2.1594430971625774e-05,1174.7781150195704,40915.93709936726,2895,0.03731517671896934,0.036925002916483415,2868.0030578268493
92,235.9696988,1172,41411,0.8665578153052318,2.153527213164422e-05,1175.8891934131916,40955.78527259882,2889,0.03697606225003313,0.03684930009063051,2867.8770980089594
93,236.505448925,1167,41498,0.8666098942893835,2.148743880115503e-05,1176.3926929262045,40950.88679245204,2877,0.036743520349975106,0.03677909921921001,2865.4561824729344
94,237.04109369999998,1172,41612,0.8664654382940954,2.142595050183223e-05,1176.9099639855717,40911.29219234786,2883,0.03665980130863494,0.036698850162564925,2861.0939545629026
95,237.576633125,1184,41636,0.8658853313998153,2.1405253915747436e-05,1177.7563931232646,40834.724025458454,2874,0.03617487911761317,0.036620262999821795,2855.5431153592963
96,238.11206719999998,1186,41567,0.8659634438688039,2.1444824146722563e-05,1178.1908763505178,40726.61958368175,2874,0.03619886315966769,0.03655427259461438,2848.8987293029877
97,238.64739592499998,1176,41465,0.8653764850454776,2.147922472748089e-05,1178.3532582844234,40594.73025436512,2870,0.036385806688352625,0.03650034118908203,2841.3905411220553
98,239.1826193,1169,41346,0.865240351462597,2.1535713255409738e-05,1178.871299463159,40452.26120636856,2854,0.03628767683536541,0.03644101749884176,2833.57106616226
99,239.71773732499997,1181,41141,0.8654717432609225,2.1658452033556618e-05,1179.1930281546354,40318.013295883626,2859,0.036342882512308,0.03638692909712308,2826.3012072753086
100,240.25275,1188,40676,0.8654328986505,2.1916351768904476e-05,1178.8655009173253,40186.517021902335,2857,0.03657839110230157,0.03634360896317014,2819.0083580601513
101,240.787657325,1189,40262,0.8649750843904328,2.2137411624150507e-05,1178.303427031167,40050.62551813102,2839,0.03652672917984834,0.03629704598330668,2811.0607035266403
102,241.3224593,1189,39945,0.8650023747478218,2.2319186055006238e-05,1178.2920111440578,39923.630501256346,2811,0.03620171978122012,0.03625081111600114,2803.9512786246037
103,241.85715592499997,1182,39593,0.864426750181391,2.250466663667676e-05,1178.7874470542708,39802.65847470987,2778,0.035917447952136104,0.0362172977447128,2798.1118258623665
104,242.3917472,1177,39336,0.8640504083213235,2.2643423787869797e-05,1180.2799383904278,39679.215610771855,2765,0.035957756975137235,0.036172258991280334,2792.6233889781793
105,242.92623312499998,1175,39222,0.8638615542876957,2.2705116153381232e-05,1181.9787084644952,39560.9235769772,2767,0.036146544916182924,0.03612319839245115,2787.374549819875
106,243.46061369999998,1185,38762,0.8647030136247108,2.3011496756651964e-05,1182.6574780855512,39466.68635756114,2744,0.035874923443620414,0.036095435123233585,2783.1410903983706
107,243.994888925,1185,38472,0.863747888775786,2.3164853401340576e-05,1183.1950440553353,39400.73761580027,2730,0.03578969850507119,0.03607460053413513,2780.2492015673665
108,244.52905879999997,1184,38653,0.8628771528607923,2.3029094794651372e-05,1183.5334662166526,39358.420756981286,2733,0.03567206783691498,0.03603569643191976,2777.368705972902
109,245.063123325,1195,38785,0.8633129275796555,2.296655832880169e-05,1183.8746064463296,39343.8171192998,2751,0.03573596475961543,0.035985940525127276,2775.0923463724585
110,245.59708249999997,1202,38596,0.8623491049005171,2.3061162349588625e-05,1183.9837142403906,39361.50127975643,2759,0.03590622977830949,0.035953293485564114,2774.737094837882
111,246.130936325,1192,38334,0.862505803534046,2.322184598390087e-05,1183.8311626537181,39426.24034519393,2759,0.03638863265677266,0.03592849753634752,2776.4355704545437
112,246.66468479999997,1181,38323,0.8631762817630669,2.3239897737414974e-05,1184.3225214613922,39544.59043239862,2755,0.036579599038691166,0.03589900086155692,2780.618066094309
113,247.19832792499997,1174,38581,0.8629529675416884,2.3069290976065666e-05,1185.0916215542593,39716.20276789885,2744,0.0362187868324231,0.03585901918938412,2786.775215746623
114,247.7318657,1173,39189,0.8621360146885437,2.267824112711868e-05,1185.6707060182337,39935.95447235421,2752,0.0358089427397204,0.035812118264985475,2794.4044938729676
115,248.265298125,1176,39387,0.8624878814902607,2.2571717083830853e-05,1186.1212711499466,40197.93098371348,2764,0.03584388672912339,0.03576793974396174,2803.8053636548425
116,248.79862519999998,1171,39283,0.862427427307537,2.262876331096602e-05,1186.4172687942876,40492.15126050342,2760,0.035957104901125005,0.035735230427289835,2814.940247797179
117,249.33184692499998,1164,39614,0.8621956715984717,2.2423814605942046e-05,1186.5885524020703,40808.56082810405,2763,0.035855679554901335,0.035715487974032345,2827.5294117646513
118,249.8649633,1187,40216,0.8614594306460737,2.2072290620976033e-05,1186.95293211622,41163.781580555966,2797,0.03553638789977141,0.03568657311432644,2841.4042900178392
119,250.397974325,1196,40667,0.861591555373828,2.182847040545788e-05,1187.0512808896917,41565.846565040316,2844,0.035973319228194585,0.035656246070104945,2856.858298036141
