,x_(nm),baseline_dark,baseline_light,baseline_mirror,baseline_calibration,baseline_dark_smoothed,baseline_light_smoothed,raw_signal,calibrated_signal,calibrated_signal_smoothed,raw_signal_smoothed
0,186.23,1210,1185,0.3621226043733797,-0.014484904174935188,1185.8559561866984,4014.9314531811897,1202,0.1158792333994815,,1426.4905217691007
1,186.775442325,1205,1187,1.18800459154587,-0.06600025508588166,1191.6707128198793,3045.917019076631,1204,0.06600025508588166,,1350.0331363379084
2,187.3207793,1197,1180,1.908567993433533,-0.11226870549609017,1197.0988363866745,2198.1325292574793,1194,0.3368061164882705,,1283.454000571362
3,187.86601092499998,1187,1174,1.7279185264672412,-0.13291680972824932,1202.152716503469,1467.4496736382098,1199,-1.5950017167389918,,1226.4118843796184
4,188.41113719999998,1193,1179,1.043047789334166,-0.07450341352386901,1206.844742786648,849.7401421332984,1205,-0.894040962286428,,1178.5655576728352
5,188.956158125,1196,1194,0.840365554154959,-0.4201827770774795,1211.187304852597,340.8756246572211,1193,1.2605483312324384,,1139.5737903611694
6,189.50107369999998,1192,1211,0.8202728553565946,0.04317225554508392,1215.192792317701,-63.27218887554682,1188,-0.1726890221803357,,1109.0953523547785
7,190.045883925,1209,1218,0.837733819880384,0.09308153554226489,1218.873594798345,-366.8316085505294,1214,0.46540767771132446,,1086.7890135638195
8,190.59058879999998,1229,1221,0.8116271105193998,-0.10145338881492498,1222.2421019109145,-573.930944453251,1230,-0.10145338881492498,,1072.3135438984498
9,191.135188325,1233,1216,0.8262856362484797,-0.04860503742638116,1225.3107032717942,-688.6985066692368,1233,-0.0,,1065.3277132688265
10,191.67968249999998,1238,1226,0.8012221689422371,-0.06676851407851976,1228.0917884973699,-715.2626052840087,1246,-0.5341481126281581,,1065.4902915851073
11,192.22407132499998,1230,1231,0.7775424502505143,0.7775424502505143,1230.5977472040263,-657.7515503830928,1239,6.997882052254629,,1072.460048757449
12,192.7683548,1226,1226,0.7753865851703869,inf,1232.8409690081487,-520.2936520520143,1228,inf,,1085.8957546960091
13,193.312532925,1228,1212,0.7956261498651602,-0.049726634366572514,1234.8338435261223,-307.01722037629406,1226,0.09945326873314503,,1105.4561793109447
14,193.8566057,1238,1211,0.7908861747409445,-0.029292080545960907,1236.5887603743322,-22.05056544146146,1233,0.14646040272980454,,1130.800092512413
15,194.400573125,1247,1226,0.7942231778648126,-0.03782015132689583,1238.118109169164,330.47800266696277,1245,0.07564030265379167,,1161.5862642105715
16,194.9444352,1246,1237,0.7947581770897779,-0.08830646412108643,1239.4342795270022,746.4401738634542,1240,0.5298387847265186,,1197.4734643155773
17,195.488191925,1247,1241,0.7914877943554887,-0.13191463239258144,1240.5496610642324,1221.7076380624885,1233,1.84680485349614,,1238.1204627375878
18,196.0318433,1259,1255,0.7911116722494277,-0.19777791806235692,1241.4766433972397,1752.15208517854,1244,2.9666687709353536,,1283.18602938676
19,196.575389325,1250,1247,0.7900325230816138,-0.2633441743605379,1242.2276161424095,2333.645205126084,1243,1.8434092205237653,,1332.3289341732514
20,197.11883,1236,1238,0.798472358442206,0.399236179221103,1242.8149689161264,2962.0586878195977,1236,0.0,,1385.207947007219
21,197.662165325,1244,1245,0.7981102791346143,0.7981102791346143,1243.2510913347762,3633.2642231735576,1249,3.9905513956730716,,1441.4818377988204
22,198.2053953,1248,1246,0.8040599544843242,-0.4020299772421621,1243.5483730147437,4343.133501102442,1246,0.8040599544843242,,1500.8093764582131
23,198.74851992499998,1240,1245,0.8074165803696804,0.1614833160739361,1243.7192035724142,5087.538211520716,1235,-0.8074165803696804,,1562.8493328955533
24,199.2915392,1246,1249,0.8060625325032217,0.26868751083440723,1243.775972624173,5862.350044342863,1244,-0.5373750216688145,,1627.2604770209991
25,199.83445312499998,1270,1264,0.8122546130835153,-0.13537576884725255,1243.731069786381,6663.440689483212,1257,1.7598849950142832,inf,1693.7015787446733
26,200.3772617,1252,2252,0.8144257223941842,0.0008144257223941842,1244.578314344582,7377.250152891204,1337,0.06922618640350565,inf,1752.3924890710666
27,200.919964925,1232,6391,0.8150182986479615,0.0001579798989431986,1245.2053274139605,8107.469251851529,1678,0.07045903492866658,inf,1812.272712858694
28,201.4625628,1235,11155,0.8232603193402961,8.298995154640081e-05,1245.06740809529,8857.350200457371,2054,0.06796877031650227,inf,1873.0554938956357
29,202.005055325,1223,13135,0.8194894939197722,6.879528995296947e-05,1244.8089424448785,9624.433056241181,2224,0.06886408524292244,inf,1935.817866769312
30,202.5474425,1224,14065,0.8269202298982968,6.439687173104095e-05,1244.7242293143433,10404.31284966797,2300,0.06929103398260006,inf,2000.0268862261503
31,203.089724325,1229,14749,0.8298864771900701,6.13821358868395e-05,1244.3120795487769,11197.372148859327,2358,0.0693004314162418,inf,2064.4047203786777
32,203.63190079999998,1240,15417,0.8293789756785952,5.850172643567717e-05,1243.1115087544215,12005.320324355927,2404,0.06809600957112823,-inf,2128.970146549145
33,204.173971925,1242,15893,0.8303112569560028,5.6672667869497156e-05,1242.3814582436507,12826.837618065847,2438,0.0677805107719186,-inf,2195.229291716644
34,204.71593769999998,1248,16238,0.832804584655424,5.555734387294356e-05,1242.4621395727863,13652.389635099062,2482,0.06855776233921235,-inf,2262.5789259099433
35,205.257798125,1250,16596,0.8371769300637781,5.455342956234707e-05,1242.2099028290322,14473.928333597314,2512,0.068846428107682,-inf,2329.5518131780564
36,205.7995532,1239,17046,0.8381556767340916,5.302433584703559e-05,1241.8814016172269,15287.399578699113,2545,0.06924978261622848,-inf,2396.067136288432
37,206.34120292499998,1244,17665,0.840625124319978,5.1192078699225265e-05,1241.3891367867664,16093.96437065361,2599,0.06936526663745024,-inf,2461.8577997236157
38,206.88274729999998,1248,18300,0.8415937915656597,4.935455029120688e-05,1240.82291784636,16891.341230831633,2642,0.06880024310594239,0.12195332467087236,2526.598677206683
39,207.424186325,1236,18684,0.8431564976534377,4.8323962497331366e-05,1240.221522571269,17669.077170490502,2670,0.06929656222117318,0.07196514169058615,2589.870551994333
40,207.96552,1231,18974,0.844165982526256,4.7577409825072196e-05,1239.9332261206132,18424.092504926142,2709,0.07031941172145671,0.021019745949482933,2651.870280187496
41,208.506748325,1229,19325,0.8476484869242688,4.68417598875038e-05,1240.019773947291,19162.136243176148,2746,0.07105894974934326,-0.03441287389634311,2713.148383881802
42,209.0478713,1237,19774,0.8491768105118729,4.580982955774251e-05,1239.864119232575,19880.361525741988,2783,0.07082199649626991,-0.0777366744207284,2772.3870302837586
43,209.588888925,1245,20367,0.8502736512177026,4.446572802100735e-05,1239.3810958345364,20570.084984936973,2813,0.06972226153693953,-0.07824903408915766,2828.9157851819427
44,210.12980119999997,1248,20849,0.8513731200582484,4.343518800358392e-05,1239.7319531585983,21229.183967926387,2831,0.06875790260967335,-0.034344875150545136,2883.2641282927716
45,210.670608125,1246,21310,0.8534308197221572,4.253542761773112e-05,1240.2081360845987,21843.208589095597,2863,0.06877978645787122,-0.01161098538663835,2933.683231783223
46,211.2113097,1245,21742,0.8557212941711507,4.17486117076231e-05,1240.1319395682565,22411.138077872227,2900,0.06909395237611624,-0.03946446396259223,2979.974404856225
47,211.751905925,1243,22025,0.8575135521308375,4.126232086088141e-05,1240.2075471697876,22930.38707558451,2932,0.0696920599340287,0.06052835362433359,3022.575143264795
48,212.29239679999998,1241,22397,0.8580327959771828,4.055742087243254e-05,1240.3335975899554,23389.557113410956,2966,0.06996155100494612,0.0796667282286105,3059.796167523554
49,212.83278232499998,1242,22827,0.8587529108532552,3.978470747524926e-05,1240.5054701125496,23792.571202065275,2984,0.0693049604218842,0.05075581616503056,3091.704206210727
50,213.37306249999997,1244,23277,0.8598387128136875,3.902504029472552e-05,1240.9380959930904,24141.7325194224,3033,0.06981579708726396,0.025280148476316,3119.1010668417707
51,213.91323732499998,1240,23856,0.8611437003932625,3.807674656850294e-05,1241.2361321887008,24428.39257967291,3097,0.07070851837770996,0.07038310955825781,3141.0160819043995
52,214.45330679999998,1238,24549,0.8624756676121401,3.6998655896878734e-05,1240.8139482207741,24686.515164555913,3157,0.07100042066611029,0.07045415938536699,3160.476975695878
53,214.993270925,1251,25061,0.8630074298534857,3.6245587142103555e-05,1239.022197558245,25023.272214545716,3210,0.07100510521138087,0.07058732641954904,3186.6525402613265
54,215.5331297,1238,25573,0.8629495266956824,3.546125032651253e-05,1236.9182540940667,25470.755736256277,3233,0.0707451944013925,0.0706556715222369,3221.5885977031703
55,216.07288312499998,1228,26166,0.8648478670709356,3.4679920886636286e-05,1235.8418537225973,25957.847131304854,3266,0.07067767876696475,0.07072106625038989,3260.3905411220467
56,216.61253119999998,1232,26674,0.8650803831098881,3.400205892264319e-05,1235.7841174205296,26453.66429590654,3316,0.07086029079478841,0.07078901971106243,3300.616163446448
57,217.152073925,1246,27017,0.8652291434094919,3.357375124789461e-05,1236.3427937212384,26957.519377561828,3364,0.07110920514304078,0.07084596017166074,3341.7130852340288
58,217.69151129999997,1240,27256,0.8680312398394996,3.336528443417511e-05,1237.2308093048302,27474.141973770118,3384,0.07153516982687143,0.07084411258548715,3382.955650184537
59,218.230843325,1227,27680,0.868212549145114,3.2820948442335995e-05,1238.0659584588313,28002.72570160086,3406,0.07151684665585013,0.07081425358838975,3424.541190060864
60,218.77006999999998,1239,28264,0.868144571802742,3.212375843858435e-05,1238.944438152596,28536.7644114244,3457,0.07125049621678008,0.07078596577775906,3466.430179618951
61,219.30919132499997,1246,28914,0.8681762475955156,3.137835216117954e-05,1239.84502480235,29072.026184057977,3516,0.07122885940587756,0.07074716819007619,3507.922285895423
62,219.84820729999998,1243,29422,0.868951283960652,3.083683892120558e-05,1240.4203492717602,29610.557589072792,3557,0.07135644526366972,0.07072179073598932,3549.9599990939096
63,220.38711792499998,1239,29875,0.8691522224557424,3.035173286966554e-05,1241.0409295793552,30159.395637499707,3593,0.07144797917519267,0.07069453831343996,3592.9202473441514
64,220.9259232,1239,30563,0.8692686507714266,2.9643590600580635e-05,1241.7432331422895,30725.01474552026,3641,0.07120390462259468,0.07063958779536672,3636.806722689006
65,221.464623125,1236,31279,0.8701622824311823,2.8963894498924286e-05,1242.0932976964132,31299.522888400046,3682,0.0708456859443688,0.0705881496290507,3681.1177150104622
66,222.0032177,1231,31698,0.86932404321908,2.8533299741329308e-05,1242.1896532197547,31874.665337832637,3698,0.0703916504618594,0.07054341688684158,3724.9394550272227
67,222.54170692499997,1238,32054,0.8705973257298546,2.8251470850527473e-05,1242.531269111394,32447.05873292651,3728,0.07034616241781341,0.07050141177496784,3768.258669505466
68,223.0800908,1252,32545,0.8704844215444587,2.7817224987839413e-05,1242.8928401549058,33018.556094135136,3765,0.06990468639444045,0.07046096764128895,3811.8285578381565
69,223.61836932499997,1239,32969,0.8703398065724872,2.7429555832728874e-05,1243.1219733176051,33592.9254569746,3789,0.06994536737345863,0.07038706429711745,3854.874425241721
70,224.1565425,1227,33734,0.8697053263836744,2.6754401402272567e-05,1243.4027950802724,34166.42666878006,3850,0.07017679487816095,0.070279095055699,3897.1994156152273
71,224.69461032499999,1230,34424,0.8700422735223692,2.621082947286766e-05,1243.4927404923997,34735.82033568078,3902,0.07003533635150239,0.07015876972533308,3938.704817776092
72,225.23257279999999,1231,35096,0.8700397124616915,2.5691413331217823e-05,1243.5228204489106,35300.001155178375,3949,0.06982926143425004,0.07002489984159589,3979.018550816477
73,225.77042992499997,1233,36048,0.8700678242154535,2.499117691269434e-05,1243.573625676662,35854.71322113682,4030,0.06990032182480607,0.06989640000883421,4018.6089605652814
74,226.30818169999998,1222,36761,0.8699872642519537,2.447979020940245e-05,1243.4629096921547,36399.360914176286,4092,0.07025699790098504,0.06977502558537489,4057.6449070193335
75,226.84582812499997,1216,37246,0.8700242014773532,2.414721624971838e-05,1243.2987836643854,36939.34659901626,4135,0.07048572423292795,0.06963884256826272,4096.241296518529
76,227.3833692,1247,37869,0.8696880407569096,2.3747693756673848e-05,1243.2210922104452,37471.50248023666,4206,0.07026942582599792,0.0695183201339126,4134.878570295963
77,227.92080492499997,1261,38228,0.87010037851645,2.353721910126464e-05,1243.184738046138,37991.81816122602,4238,0.07007030126446483,0.06941942018995984,4173.1807062446815
78,228.45813529999998,1296,38384,0.8693067287349536,2.3439029571153842e-05,1243.1006591315531,38504.154612787774,4243,0.06907482014619037,0.06934186806793506,4211.629051620568
79,228.99536032499998,1322,38755,0.8691277262341458,2.321822259060577e-05,1243.2820901945447,38999.86522910977,4267,0.068377665529334,0.06928557176520996,4250.030985979216
80,229.53248,1285,39287,0.86926662631248,2.287423362750592e-05,1243.3955921991198,39472.70715078408,4292,0.0687828205179103,0.06922026487658947,4286.338965774907
81,230.069494325,1253,40023,0.8686441253792921,2.2405058689174417e-05,1243.0108722734137,39933.188339485976,4319,0.06869390994100877,0.06916389177722358,4321.785544406359
82,230.60640329999998,1234,40626,0.868302707705708,2.204261544744385e-05,1242.6339894448106,40372.84815058022,4350,0.06868478973423503,0.06913916805446392,4356.943215021774
83,231.143206925,1230,41091,0.8687016218294412,2.179327216651467e-05,1242.9448458628494,40772.73865772646,4396,0.06899749967918545,0.06915364793438676,4391.169403610416
84,231.67990519999998,1231,41380,0.8683284847277679,2.1627649125202817e-05,1243.0852340936135,41128.9134748231,4423,0.06903545600764739,0.06920172847921542,4422.916034338178
85,232.216498125,1234,41703,0.8683608504247778,2.1457432860332052e-05,1242.6599696482128,41458.23522616515,4460,0.0692216784074312,0.06926831619155543,4452.749439398316
86,232.75298569999998,1235,42129,0.868249886800152,2.1231718266742115e-05,1242.375365240412,41768.532673445945,4507,0.0694701821687802,0.06934503589645385,4481.872250787022
87,233.289367925,1234,42543,0.867778574191436,2.1007009954039943e-05,1242.5752565176774,42050.82248748475,4522,0.06907104872888334,0.069447748436149,4510.496228680065
88,233.8256448,1236,42869,0.8676471171202086,2.084036982970741e-05,1243.0096491426518,42293.98194749517,4542,0.0688982626570127,0.06958201508996043,4537.461120297089
89,234.36181632499998,1237,42962,0.8677489292852631,2.0796858700665385e-05,1243.4072572424955,42491.16306145018,4548,0.0688583991579031,0.0697367260671766,4561.386917030875
90,234.89788249999998,1236,42994,0.8672589311593729,2.076868938070245e-05,1243.6080545425477,42664.0653921938,4549,0.06880666791826721,0.06989966898849795,4583.675145529822
91,235.433843325,1237,43105,0.8668004592010585,2.0703173287500202e-05,1243.086208068109,42822.47686244227,4588,0.06937633368641317,0.0700787720524654,4604.991868445403
92,235.9696988,1222,43299,0.8665578153052318,2.0594572220101997e-05,1242.5691182132991,42948.01614985534,4626,0.0701039238372272,0.07025448684607184,4623.68257491667
93,236.505448925,1224,43457,0.8666098942893835,2.0519733248629828e-05,1242.0373960904878,43034.47119979985,4636,0.07001332984432497,0.07044990016799627,4639.9426261069575
94,237.04109369999998,1234,43579,0.8664654382940954,2.0462048371569145e-05,1241.5336700717783,43090.293211623444,4661,0.07012343976936745,0.0706438897725398,4653.871978980183
95,237.576633125,1235,43664,0.8658853313998153,2.0407865643777023e-05,1241.1346576366157,43110.63537112876,4675,0.07020305781459296,0.07083804356806699,4665.03957054511
96,238.11206719999998,1240,43774,0.8659634438688039,2.035932298558339e-05,1240.6749869758987,43098.2943668025,4701,0.07046361685310411,0.07104664463438098,4674.093433599765
97,238.64739592499998,1242,43823,0.8653764850454776,2.0323066274758168e-05,1240.3531676821433,43062.19309610555,4744,0.0711713780942031,0.07126779381197466,4681.781263448685
98,239.1826193,1240,43767,0.865240351462597,2.0345671019883768e-05,1240.1790754037227,43017.245917233995,4765,0.07171849034509029,0.07149099134897359,4689.18956261741
99,239.71773732499997,1244,43706,0.8654717432609225,2.0382265160871425e-05,1239.9128859090567,42983.319961946225,4778,0.07203092507851962,0.07172229715641378,4698.027565743189
100,240.25275,1248,43399,0.8654328986505,2.0531728752591872e-05,1239.291444879815,42952.23853314828,4762,0.07214849483660785,0.07197183644939578,4707.548279689145
101,240.787657325,1249,43087,0.8649750843904328,2.0674388938057097e-05,1238.715486194454,42916.64825930291,4751,0.07240171006107596,0.07224900096750875,4718.081881809237
102,241.3224593,1245,42944,0.8650023747478218,2.0743959681235085e-05,1238.705316088676,42891.38383655267,4766,0.07303948203762874,0.07254880393292659,4731.285057419103
103,241.85715592499997,1245,42727,0.864426750181391,2.0838598673675114e-05,1239.3036761874323,42867.60821309574,4761,0.0732685129366417,0.07284508133741213,4745.067023035539
104,242.3917472,1251,42563,0.8640504083213235,2.091524032536124e-05,1241.077963260752,42833.55444064337,4753,0.07324517161941506,0.07310416660195468,4757.638587510384
105,242.92623312499998,1242,42560,0.8638615542876957,2.0907632370581726e-05,1243.5475548709812,42803.6064463513,4782,0.07401301859185931,0.07332526598569727,4769.613535980338
106,243.46061369999998,1248,42227,0.8647030136247108,2.1101125298926542e-05,1245.397925207795,42793.14090919305,4775,0.07442366892931392,0.0735399042876545,4782.25309746531
107,243.994888925,1251,42028,0.863747888775786,2.1182232355881648e-05,1246.670388910257,42801.02292237568,4760,0.0743284533367887,0.07373436745184916,4794.947858388547
108,244.52905879999997,1242,42276,0.8628771528607923,2.1028346075468934e-05,1247.3196221884739,42820.5824820486,4762,0.07401977818565064,0.07391723540316046,4807.719631248634
109,245.063123325,1242,42544,0.8633129275796555,2.090244849110589e-05,1247.8605857437076,42854.94251285338,4787,0.07409917990097038,0.07408531146745177,4820.845840222789
110,245.59708249999997,1247,42384,0.8623491049005171,2.0962858373253204e-05,1248.2488618088505,42911.92310131518,4791,0.07429237007480935,0.07423271492833075,4834.725112686491
111,246.130936325,1254,42057,0.862505803534046,2.113829383952273e-05,1248.3528279235982,43005.55156402101,4779,0.07451248578431763,0.07437077674943601,4850.987813993428
112,246.66468479999997,1246,42086,0.8631762817630669,2.1135560278233764e-05,1248.2071168089637,43139.03286597576,4766,0.07439717217938285,0.0744910331111775,4869.351491539918
113,247.19832792499997,1235,42395,0.8629529675416884,2.0965815537941893e-05,1248.0669550838966,43311.35210310457,4774,0.07419802118877636,0.07456833279199584,4888.8122947291195
114,247.7318657,1230,42961,0.8621360146885437,2.065936629097179e-05,1248.1737751704218,43520.241930733726,4828,0.0743323999149165,0.07460658374285668,4909.506194930707
115,248.265298125,1234,43108,0.8624878814902607,2.0597217401974034e-05,1248.464246075765,43758.260572152554,4853,0.07454132977774403,0.07460447544982438,4930.682076604132
116,248.79862519999998,1255,42996,0.862427427307537,2.066139832077662e-05,1248.7321117125857,44016.61417019553,4850,0.07427772696319196,0.07456143350660284,4951.447144895599
117,249.33184692499998,1250,43244,0.8621956715984717,2.0531401428739144e-05,1249.072595075742,44287.568891706775,4877,0.07446739298203688,0.07448449944756633,4971.570862307091
118,249.8649633,1258,43695,0.8614594306460737,2.0299725019348062e-05,1248.8123853314673,44587.445672607806,4913,0.07419549494571717,0.07439290849280351,4992.656458809843
119,250.397974325,1276,44069,0.861591555373828,2.0133936750726242e-05,1248.3607782735494,44923.51047588761,4958,0.07413315511617402,0.07425757873246532,5014.020951776842
