,x_(nm),baseline_dark,baseline_light,baseline_dark_smoothed,baseline_light_smoothed,raw_signal,calibrated_signal,calibrated_signal_smoothed,raw_signal_smoothed
0,186.23,1302,1308,1287.7735374749793,4439.485386607483,1302,0.0,,1295.754963620667
1,186.775442325,1296,1308,1293.486893005871,3357.7296792737493,1309,1.0833333333333333,,1296.1832114364845
2,187.3207793,1293,1314,1298.7645796973839,2412.8921117358473,1299,0.2857142857142857,,1296.9150226515367
3,187.86601092499998,1292,1307,1303.6225872448636,1600.130237058544,1289,-0.2,,1297.934457982515
4,188.41113719999998,1303,1306,1308.076905343656,914.6016083066065,1288,-5.0,,1299.2255781461104
5,188.956158125,1311,1311,1312.1435236891075,351.46377854480215,1292,-inf,,1300.772443859014
6,189.50107369999998,1316,1309,1315.838431976564,-94.12569916210123,1288,4.0,,1302.5591158379168
7,190.045883925,1331,1317,1319.177619901371,-427.00927174933804,1300,2.2142857142857144,,1304.5696547995103
8,190.59058879999998,1331,1329,1322.177077158875,-652.0293861521386,1313,9.0,,1306.7881214604854
9,191.135188325,1322,1332,1324.8527934444216,-774.0284893057378,1316,-0.6,,1309.1985765375332
10,191.67968249999998,1325,1333,1327.220758453357,-797.8490281453669,1329,0.5,,1311.7850807473449
11,192.22407132499998,1326,1326,1329.296961881027,-728.3334496062598,1324,-inf,,1314.5316948066118
12,192.7683548,1315,1326,1331.0973934227777,-570.3242006236487,1316,0.09090909090909091,,1317.4224794320246
13,193.312532925,1307,1332,1332.638042773955,-328.66372813276575,1311,0.16,,1320.4414953402745
14,193.8566057,1321,1338,1333.934899629905,-8.194479068846704,1319,-0.11764705882352941,,1323.572803248053
15,194.400573125,1336,1355,1335.0039536859733,386.24109963288083,1327,-0.47368421052631576,,1326.800463872051
16,194.9444352,1353,1371,1335.8611946375063,849.800561037182,1334,-1.0555555555555556,,1330.1085379289598
17,195.488191925,1358,1378,1336.5226121798498,1377.6414582088223,1342,-0.8,,1333.4810861354702
18,196.0318433,1347,1380,1337.0041960083497,1964.921344212571,1351,0.12121212121212122,,1336.9021692082736
19,196.575389325,1341,1362,1337.3219358183521,2606.797772113191,1342,0.047619047619047616,,1340.355847864061
20,197.11883,1336,1357,1337.4918213052028,3298.428294975459,1332,-0.19047619047619047,,1343.8261828195234
21,197.662165325,1348,1368,1337.5298421642478,4034.970465864132,1348,0.0,,1347.2972347913524
22,198.2053953,1351,1361,1337.4519880908333,4811.5818378439835,1348,-0.3,,1350.7530644962385
23,198.74851992499998,1334,1358,1337.2742487803048,5623.419963979779,1327,-0.2916666666666667,,1354.1777326508734
24,199.2915392,1329,1365,1337.0126139280087,6465.642397336287,1335,0.16666666666666666,,1357.5552999719478
25,199.83445312499998,1346,1375,1336.6830732292658,7333.4066909781395,1359,0.4482758620689655,,1360.8698271761273
26,200.3772617,1348,2478,1337.1266619855235,8092.79005186965,1359,0.009734513274336283,,1363.9802487032287
27,200.919964925,1323,7009,1337.3475276902957,8867.426396973713,1360,0.0065072106929300036,,1366.9305760039601
28,201.4625628,1319,12319,1336.9281297424375,9659.048993181996,1378,0.005363636363636364,,1369.2218623298113
29,202.005055325,1321,14478,1336.7821241703973,10465.663050125511,1392,0.0053963669529528005,,1371.5814854243322
30,202.5474425,1329,15408,1336.8435751658897,11282.372533919011,1396,0.004758860714539385,,1373.96273981288
31,203.089724325,1330,16134,1336.3616389951947,12106.830120727305,1392,0.0041880572818157255,inf,1375.9318897370006
32,203.63190079999998,1334,16831,1335.7004915173363,12940.657931096719,1389,0.003549074014325353,inf,1377.2243765430437
33,204.173971925,1336,17326,1336.3090670230101,13781.890914856243,1383,0.002939337085678549,inf,1378.8218306190136
34,204.71593769999998,1336,17673,1337.2828603139112,14620.173254207062,1378,0.0025708514415131297,inf,1380.8719336791057
35,205.257798125,1338,17927,1337.344084803707,15448.421459149402,1391,0.003194888178913738,inf,1382.8342884323276
36,205.7995532,1341,18285,1337.2587601077912,16261.86996307926,1399,0.0034230406043437205,inf,1384.6201046456054
37,206.34120292499998,1344,18870,1337.3912659403127,17062.165281206493,1405,0.003480543192970444,0.014646391085449576,1385.990305556158
38,206.88274729999998,1335,19487,1337.3447416702277,17849.640739314254,1404,0.0038012340237990306,0.02830894933151351,1386.826700491491
39,207.424186325,1330,19783,1336.8661577838427,18613.58495096116,1387,0.0030889286294911397,0.04524293098466466,1387.2920790957626
40,207.96552,1329,19984,1336.6251104215014,19349.17008312722,1379,0.002680246582685607,0.054648380616052566,1387.8930893111697
41,208.506748325,1333,20293,1336.8468594984906,20059.23726471682,1381,0.002531645569620253,0.0523462785599922,1388.5777027791983
42,209.0478713,1339,20693,1337.5891413168786,20740.619266574155,1388,0.0025317763769763355,0.028846891941848512,1389.0890620398836
43,209.588888925,1338,21162,1338.3285918140587,21387.698090556565,1381,0.00216908797417272,0.00769619604202983,1389.3348433712845
44,210.12980119999997,1335,21507,1339.1395728102307,21996.717207637354,1378,0.002131667658139996,0.0117642121341385,1389.9337244331427
45,210.670608125,1336,21905,1340.14831593012,22552.923373122398,1379,0.0020905245758179787,0.014157184412498924,1390.4472354979462
46,211.2113097,1338,22263,1341.0713039932698,23055.691340686775,1374,0.0017204301075268817,0.009134249936036218,1390.69548574144
47,211.751905925,1341,22426,1342.2220208837994,23503.11166730798,1382,0.0019445103153900877,0.009168215362799891,1391.2669596140076
48,212.29239679999998,1350,22703,1343.5315182676588,23884.010917574113,1390,0.0018732730763827098,-0.0005497030303224777,1391.519105755483
49,212.83278232499998,1355,23086,1344.4146639787732,24203.650614962502,1391,0.0016566195757213198,-0.011822985276639697,1390.9409273142953
50,213.37306249999997,1356,23512,1344.953792837864,24463.52454189176,1392,0.0016248420292471566,-0.010074348374429295,1390.4820494235162
51,213.91323732499998,1343,24032,1345.2903803030388,24656.6241817477,1385,0.0018511172815020495,0.001648295864187607,1390.0083127590394
52,214.45330679999998,1340,24608,1345.4657863145,24818.221930281074,1395,0.002363761389032147,0.0017258442591810677,1389.1478629187259
53,214.993270925,1354,25053,1344.4736460621727,25061.37710933382,1406,0.0021941854086670325,0.0017310855733459652,1387.572289293049
54,215.5331297,1338,25453,1343.2493601213814,25431.719903055076,1389,0.002114866265809662,0.0017042818681085705,1385.878864753422
55,216.07288312499998,1335,25924,1343.1224716301358,25849.504382884734,1378,0.001748749440806865,0.0016837317774846452,1385.403112188245
56,216.61253119999998,1358,26383,1343.9170762644426,26280.53826813694,1386,0.0011188811188811189,0.0016574064906492638,1385.8329520487175
57,217.152073925,1370,26660,1345.0385512695386,26726.999048675563,1396,0.0010280743376828785,0.0016246713882401716,1386.5380642822904
58,217.69151129999997,1343,26867,1345.9177104803928,27192.225622323884,1389,0.0018022253565271901,0.0015892652970039326,1387.1932093591888
59,218.230843325,1329,27297,1346.872681147905,27676.47321570084,1378,0.0018869377695625385,0.0015339712714758547,1387.4867154408664
60,218.77006999999998,1349,27857,1347.8226686900916,28173.651294479518,1375,0.0009808359740455712,0.0014641939870012118,1387.4169969874476
61,219.30919132499997,1357,28490,1348.2200955853784,28674.014994676567,1387,0.00110566468875539,0.0014335713706913676,1387.8089197943063
62,219.84820729999998,1351,28958,1348.4725814853985,29180.454483679707,1391,0.0014489078856811679,0.0014328635533491574,1388.930643955669
63,220.38711792499998,1344,29287,1348.9823552062078,29705.033386939114,1395,0.0018251440432308628,0.0014359253957777426,1390.2976511358993
64,220.9259232,1346,29859,1349.156900496022,30255.337991799912,1395,0.0017185143618700242,0.0014482385351969615,1391.3613445377885
65,221.464623125,1348,30495,1349.5038166209622,30819.996172053136,1390,0.0014409716265824956,0.0014342426225465057,1391.8729529547404
66,222.0032177,1346,30929,1349.6379079933602,31389.490883145107,1387,0.0013859311090829193,0.0014096503090834027,1391.9048223062541
67,222.54170692499997,1347,31327,1349.6621894040375,31960.163559762917,1393,0.001534356237491661,0.0013848133586613662,1391.8256359147165
68,223.0800908,1357,31760,1349.703232236265,32532.099685156456,1406,0.0016116830575930007,0.0013680314942949659,1391.9940882012916
69,223.61836932499997,1348,32165,1349.416340120928,33105.08210831439,1401,0.0017198299639809196,0.0013466886958943543,1391.8027814899278
70,224.1565425,1336,32926,1348.8776642732305,33672.36424381009,1391,0.0017410572966128522,0.0013371177486090652,1391.743754105389
71,224.69461032499999,1332,33619,1348.0820856644289,34231.597929737276,1382,0.0015486108960262644,0.0013377875198760754,1391.746313619761
72,225.23257279999999,1335,34278,1347.4837482162418,34777.83560216473,1378,0.0013052848860152385,0.0013208845629326495,1391.4685270334282
73,225.77042992499997,1333,35200,1347.223787628233,35303.00095132325,1381,0.0014173088847550712,0.0012976518498653373,1391.2302203900163
74,226.30818169999998,1329,35840,1347.1326417359137,35802.02715803234,1378,0.001419837153371389,0.001277186415338176,1391.236041586419
75,226.84582812499997,1332,36281,1347.1953158621682,36275.78148995378,1369,0.0010586855131763427,0.0012560262135259117,1391.4100432625614
76,227.3833692,1356,36789,1347.1770595030205,36720.701035130325,1384,0.0007902238026698276,0.0012337974680940093,1391.4678475163385
77,227.92080492499997,1369,37114,1346.497451810887,37131.01508527868,1392,0.0006434466358931319,0.0012294483009897385,1391.295318127224
78,228.45813529999998,1390,37381,1345.8619447778854,37501.965140772576,1415,0.0006946180989691867,0.0012519655166901393,1391.7836644091333
79,228.99536032499998,1400,37665,1345.7482615687525,37823.00115517833,1441,0.0011305666620708673,0.00126656189150845,1392.5553240163724
80,229.53248,1368,38106,1345.0322997123121,38085.74343699671,1421,0.001442647939463226,0.0012859393540821044,1392.78654103148
81,230.069494325,1343,38698,1344.1451221997975,38294.88876305166,1399,0.0014991299692142953,0.001309384692968949,1392.8823529411497
82,230.60640329999998,1328,39092,1344.2091100590922,38443.28578223668,1387,0.0015623344984641457,0.0012987432465014848,1393.053591247793
83,231.143206925,1335,39373,1344.7087363246928,38515.83061903933,1385,0.001314474998685525,0.001279984635286919,1393.3742100613563
84,231.67990519999998,1330,39419,1344.2922149991816,38507.94348682796,1390,0.0015752579484890651,0.0012870941895846936,1393.326553262788
85,232.216498125,1325,39443,1343.4150263878878,38429.491517360926,1396,0.001862637074348077,0.0012970222767392707,1392.8310720514353
86,232.75298569999998,1342,39615,1342.824616639083,38284.29887426596,1393,0.0013325320722180126,0.0012875626457605274,1391.9990713266172
87,233.289367925,1349,39713,1342.6467190649587,38070.93089311124,1376,0.0007037847982483579,0.0012757592079365829,1391.4484359781381
88,233.8256448,1343,39551,1342.6141022446457,37781.60388683703,1373,0.000785175879396985,0.0012754882404313684,1391.2232213639904
89,234.36181632499998,1344,39059,1342.4466465831358,37409.71048041787,1383,0.0010340713244067347,0.00129400921243764,1391.1896758703215
90,234.89788249999998,1329,38464,1342.2698362363556,36971.802079321584,1385,0.0015080113100848257,0.0013191960544701813,1391.1670026500901
91,235.433843325,1329,37887,1342.1261636729905,36476.68880382272,1392,0.0017232890201870998,0.0013492220425956123,1391.1215429567787
92,235.9696988,1331,37345,1342.083195542342,35917.76835262338,1397,0.0018326206475259622,0.0013857839803048098,1391.1665496386968
93,236.505448925,1332,36715,1341.7871978980015,35292.235294116974,1396,0.0018087782268320946,0.0014425781903292887,1391.2632449205832
94,237.04109369999998,1339,35991,1341.154884595322,34606.84085709689,1402,0.0018180768786794413,0.0015474223981114218,1391.9556048834363
95,237.576633125,1342,35188,1340.1626084395766,33866.54646764302,1394,0.001536370619866454,0.0016613590078978378,1392.4092957937626
96,238.11206719999998,1350,34322,1339.0784615732828,33083.53738476459,1391,0.0012434793157830887,0.0017712377513428735,1392.5724025458974
97,238.64739592499998,1344,33386,1337.9746993136619,32267.62635620224,1393,0.0015292428687347856,0.0018828087510044693,1392.616888264713
98,239.1826193,1333,32296,1336.8745611451873,31432.426736731824,1398,0.0020992797855504956,0.0019985699581831244,1392.6529479716148
99,239.71773732499997,1334,31250,1335.7271512378281,30598.845002151218,1398,0.0021393234389624283,0.0021138598811230153,1392.6165258555986
100,240.25275,1333,30061,1334.7718861129101,29765.217037757928,1394,0.0021233639654692285,0.0022164284685404654,1392.3578563500607
101,240.787657325,1337,28824,1334.2743890008576,28935.31912387541,1400,0.0022919925783097465,0.002298855209629178,1391.8276291648467
102,241.3224593,1347,27697,1334.3042198011026,28125.804593534987,1402,0.0020872865275142313,0.0023850422735737183,1391.8602233345903
103,241.85715592499997,1342,26654,1334.7745815306998,27339.205961629414,1390,0.0018963337547408343,0.002471841820266447,1392.3017735395779
104,242.3917472,1338,25729,1336.0777820561934,26577.313189426204,1393,0.002254930097166988,0.0025488409163806065,1393.1973770640063
105,242.92623312499998,1342,24954,1337.4177218056775,25853.874311988453,1396,0.0022869727257326783,0.0026474834651207834,1394.904754354545
106,243.46061369999998,1343,24012,1337.9284695009824,25191.0855738517,1388,0.0019850897701707178,0.0027660228161072494,1396.6100477926755
107,243.994888925,1333,23238,1337.9851865274154,24596.9567147609,1391,0.002647797306551016,0.002888642715785133,1398.1131622460034
108,244.52905879999997,1332,22768,1337.6064463521,24069.90985073229,1396,0.0029856316476954657,0.003018434923330541,1399.5415298194482
109,245.063123325,1337,22376,1337.3629300776659,23620.853949126373,1403,0.0031370312277199486,0.0031446963476676653,1401.1232870506424
110,245.59708249999997,1336,21883,1337.1826768442972,23260.18276744616,1408,0.003504161191414805,0.003267456083701601,1402.792837889846
111,246.130936325,1345,21437,1336.8833722167856,23004.839769869774,1417,0.0035835158271949035,0.003389473030112729,1404.5588801558088
112,246.66468479999997,1341,21213,1336.8854787197643,22867.693424539186,1422,0.004076086956521739,0.003494711182861826,1406.3307209676054
113,247.19832792499997,1331,21231,1337.0203855126697,22851.517542865768,1419,0.004422110552763819,0.0035821318699819863,1407.9534757298875
114,247.7318657,1327,21499,1337.0925728781822,22951.852386237075,1421,0.004659924648026968,0.003659014880912337,1409.4132369928834
115,248.265298125,1327,21637,1337.1777616706804,23163.864526942416,1426,0.0048744460856720824,0.0037369636235396637,1411.3152959296656
116,248.79862519999998,1326,21746,1337.1489501460703,23480.292894515846,1427,0.0049461312438785505,0.0038269367593960456,1413.9159890370972
117,249.33184692499998,1318,22093,1337.0174182880444,23890.134725587894,1425,0.005150421179302046,0.003932272596953258,1417.3269383224717
118,249.8649633,1325,22746,1336.608937914763,24408.153299055004,1434,0.00508846459082209,0.004052702784559435,1421.5989943146799
119,250.397974325,1348,23489,1336.2200955853782,25039.994065550265,1434,0.0038841967390813425,0.0041725347910759455,1426.4351627443157
120,250.93087999999997,1356,24337,1335.805182450313,25784.468300527264,1446,0.003916278664984118,0.004298301596699254,1432.213708124732
121,251.46368032499998,1350,25499,1335.4270538403784,26635.341434686576,1455,0.004348006128618162,0.004422184639877587,1438.8038007655616
122,251.99637529999998,1347,26690,1335.5803075947106,27568.35613490627,1458,0.004379907666811348,0.004537343774347397,1446.1233550023508
123,252.52896492499997,1350,27796,1335.632970169174,28573.99707807597,1461,0.0041972320955910155,0.004661201584882632,1454.1019955151592
124,253.06144919999997,1350,28875,1335.3894538947397,29647.967858841086,1474,0.0045049954586739325,0.004810359869665314,1463.3234048336037
125,253.593828125,1338,30161,1335.3070058211708,30793.532220434758,1488,0.005204177219581584,0.004980949414504711,1474.5819384357235
126,254.1261017,1321,31529,1335.5907042061854,31999.59217649263,1498,0.005859375,0.005163592624478847,1487.7177059502762
127,254.65826992499998,1324,32786,1335.828353983077,33243.18455684097,1505,0.005752971839043926,0.005362652048820732,1502.1883168361394
128,255.19033279999996,1323,34142,1336.0398423520096,34512.33221590457,1513,0.005789329351899814,0.005573252800858809,1517.9602935513537
129,255.722290325,1320,35750,1336.0448028267656,35804.30650750798,1540,0.006389776357827476,0.005797891160296493,1535.212507644538
130,256.2541425,1338,37283,1336.0525946227292,37114.944687308176,1567,0.00637084434552789,0.00606054309969051,1555.1066841830773
131,256.78588932499997,1344,38571,1336.2783528505486,38428.055607147784,1579,0.006312622558895425,0.006359569250356776,1577.7177512514138
132,257.3175308,1339,40113,1336.3090443724402,39720.53740741504,1593,0.00655078145148811,0.006682131058979689,1602.037871752444
133,257.849066925,1339,41924,1335.948922965387,40980.93324877042,1611,0.006701983491437723,0.007041938261889626,1627.5289814038508
134,258.3804977,1341,43642,1335.6139663412278,42211.557679674836,1632,0.006879269993617172,0.007438744921108611,1654.9057962807444
135,258.91182312499996,1333,45081,1335.4806450881983,43412.89848014595,1666,0.007611776538356039,0.007867768944608514,1684.5553919680754
136,259.4430432,1329,46131,1335.1063444245367,44569.054066908924,1707,0.008437123342707915,0.008357930035193743,1717.131010894891
137,259.974157925,1334,47054,1335.200774649457,45675.21429703869,1748,0.00905511811023622,0.00890669893586671,1753.6088926136154
138,260.5051673,1338,47957,1335.7139912568543,46732.36578404856,1783,0.009545464295673437,0.009513968684406834,1793.7839815171005
139,261.03607132499997,1336,48858,1335.6903667126971,47725.32650796076,1836,0.010521442700223054,0.010184538864693391,1836.3106072617375
140,261.56687,1338,49620,1335.169675417311,48651.48295544539,1889,0.011412120458970217,0.010933515694165409,1881.8347640942811
141,262.097563325,1326,50498,1334.586559151937,49505.176606490706,1932,0.012324086878711461,0.011761932962788395,1931.0596162993131
142,262.62815129999996,1326,51770,1333.912342295383,50272.8459308242,1982,0.013004519863611133,0.012668859372345477,1983.5814627737504
143,263.158633925,1335,52563,1332.9709166685286,50962.710888127855,2035,0.013664402280003124,0.013656827003597355,2039.7683526240298
144,263.6890112,1334,52962,1332.1657795193294,51578.92715576698,2099,0.014817540869295731,0.014718705062391186,2099.9458424878985
145,264.219283125,1342,53103,1332.2665745543247,52105.77874923454,2165,0.01590000193195649,0.015833759023303612,2163.569684477523
146,264.7494497,1346,53110,1332.5053568596995,52550.74157964972,2228,0.01703886871184607,0.017042373189805674,2231.482004122361
147,265.27951092499995,1339,53626,1332.1679086728777,52934.39475412704,2305,0.018474955533880313,0.01836498350107583,2304.826406034068
148,265.8094668,1339,54174,1332.0918027588136,53252.46014632165,2399,0.020062458597520583,0.01979961515513898,2384.0659584588097
149,266.33931732499997,1339,54435,1332.4994450610177,53488.794876440115,2487,0.021621214404098237,0.021327586624967622,2467.2801422455304
150,266.8690625,1334,54259,1333.1551111010185,53634.45384946329,2550,0.022975909305621163,0.022959918094012117,2553.4391492445548
151,267.398702325,1318,53865,1333.618179347185,53706.05610546002,2618,0.02473975678916018,0.02471910393385912,2643.8080364220655
152,267.9282368,1320,53729,1333.44974971118,53719.61437405048,2722,0.026751130531015667,0.026610532609979896,2739.516047928553
153,268.457665925,1330,53667,1333.6142834492032,53667.80688124204,2835,0.02875594703555802,0.028613414231184724,2840.0266597204377
154,268.9869897,1333,53331,1333.6114068268562,53548.75614396599,2937,0.03084734028231855,0.03076308687351184,2945.2476386780563
155,269.516208125,1329,52769,1333.1847380461363,53379.96584293992,3020,0.03287325038880249,0.033058314498614155,3055.464472581427
