,x_(nm),baseline_dark,baseline_light,baseline_mirror,baseline_calibration,baseline_dark_smoothed,baseline_light_smoothed,raw_signal,calibrated_signal,calibrated_signal_smoothed,raw_signal_smoothed
0,186.23,1305,1305,0.3621226043733797,inf,1286.4487574742843,4208.584352302458,1327,inf,,1535.8264131971116
1,186.775442325,1299,1301,1.18800459154587,0.594002295772935,1292.6470917088006,3214.4123686565554,1320,12.474048211231635,,1460.6960736883038
2,187.3207793,1299,1295,1.908567993433533,-0.4771419983583832,1298.3878157100607,2344.62425470754,1317,-8.588555970450898,,1395.2907707833974
3,187.86601092499998,1298,1294,1.7279185264672412,-0.4319796316168103,1303.6859913841363,1594.9747219029641,1311,-5.615735211018534,,1339.2749468534385
4,188.41113719999998,1297,1305,1.043047789334166,0.13038097366677076,1308.5566806370991,961.2184816903814,1309,1.5645716840012491,,1292.313044269473
5,188.956158125,1303,1315,0.840365554154959,0.07003046284624657,1313.0149453750216,439.1102455173436,1311,0.5602437027699726,,1254.0695054025475
6,189.50107369999998,1299,1321,0.8202728553565946,0.03728512978893612,1317.0758475039752,24.404724831403655,1312,0.48470668725616955,,1224.208772623708
7,190.045883925,1317,1340,0.837733819880384,0.0364232095600167,1320.7544489300317,-287.1433689198848,1327,0.364232095600167,,1202.3952883040006
8,190.59058879999998,1325,1342,0.8116271105193998,0.04774277120702352,1324.0658115592635,-499.7793242889693,1334,0.4296849408632117,,1188.2934948144712
9,191.135188325,1333,1340,0.8262856362484797,0.11804080517835425,1327.0249972977422,-617.748429828298,1328,-0.5902040258917712,,1181.5678345261663
10,191.67968249999998,1347,1347,0.8012221689422371,inf,1329.6470680515395,-645.295974090317,1341,-inf,,1181.8827498101318
11,192.22407132499998,1332,1341,0.7775424502505143,0.08639360558339047,1331.9470857267277,-586.6672456274755,1350,1.5550849005010285,,1188.9026830374141
12,192.7683548,1321,1338,0.7753865851703869,0.04561097559825805,1333.9401122293784,-446.1075329922205,1337,0.7297756095721288,,1202.2920765790593
13,193.312532925,1317,1341,0.7956261498651602,0.03315108957771501,1335.6412094655636,-227.86212473699743,1330,0.4309641645102951,,1221.7153728061135
14,193.8566057,1325,1343,0.7908861747409445,0.043938120818941356,1337.0654393413552,63.82369058574568,1341,0.7030099331030617,,1246.8370140896225
15,194.400573125,1338,1348,0.7942231778648126,0.07942231778648126,1338.227863762825,424.7046244235644,1348,0.7942231778648126,,1277.3214428006327
16,194.9444352,1351,1367,0.7947581770897779,0.04967238606811112,1339.1435446360451,850.5353882240051,1356,0.2483619303405556,,1312.8331013101906
17,195.488191925,1351,1374,0.7914877943554887,0.034412512798064725,1339.8275438670873,1337.070693434624,1361,0.34412512798064726,,1353.036431989342
18,196.0318433,1350,1380,0.7911116722494277,0.026370389074980922,1340.2949233620236,1880.0652515029774,1373,0.6065189487245612,,1397.5958772091328
19,196.575389325,1344,1366,0.7900325230816138,0.035910569230982445,1340.5607450269256,2475.2737738766104,1365,0.7541219538506313,,1446.1758793406095
20,197.11883,1345,1350,0.798472358442206,0.1596944716884412,1340.6400707678654,3118.450972003082,1351,0.9581668301306472,,1498.4408807548184
21,197.662165325,1358,1355,0.7981102791346143,-0.2660367597115381,1340.5479624909149,3805.35155732994,1365,-1.8622573179807669,,1554.0553238228051
22,198.2053953,1361,1362,0.8040599544843242,0.8040599544843242,1340.299482102146,4531.730241304742,1372,8.844659499327566,,1612.6836509156162
23,198.74851992499998,1343,1366,0.8074165803696804,0.03510506871172524,1339.9096915076302,5293.3417353750365,1359,0.5616810993876038,,1673.990304404298
24,199.2915392,1333,1360,0.8060625325032217,0.02985416787048969,1339.39365261344,6085.940750988375,1352,0.5672291895393041,,1737.6397266598965
25,199.83445312499998,1350,1378,0.8122546130835153,0.02900909332441126,1338.7664273256216,6905.281999592159,1374,0.6962182397858703,-inf,1803.2963600534206
26,200.3772617,1353,2390,0.8144257223941842,0.0007853671382779019,1338.7182948650902,7632.925071915413,1457,0.0816781823809018,-inf,1862.5404425920956
27,200.919964925,1332,6575,0.8150182986479615,0.0001554488458226133,1338.1581915784925,8377.655915196106,1793,0.07166191792422473,-inf,1922.3786722235695
28,201.4625628,1325,11444,0.8232603193402961,8.135787324244451e-05,1337.1179415162037,9141.852250333923,2165,0.06834061352365339,-inf,1983.0139980520128
29,202.005055325,1325,13511,0.8194894939197722,6.724844033479175e-05,1336.028222609773,9924.34283902221,2333,0.06778642785747008,-inf,2045.1422682280067
30,202.5474425,1319,14439,0.8269202298982968,6.302745654712628e-05,1334.9136560284235,10719.812860993248,2407,0.0685738727232734,inf,2107.840177580426
31,203.089724325,1317,15142,0.8298864771900701,6.002795495045715e-05,1333.6153253754076,11528.001653491363,2452,0.06813172886876886,inf,2171.203175609825
32,203.63190079999998,1318,15847,0.8293789756785952,5.708438128423121e-05,1331.9909624226793,12352.319282429717,2512,0.06815875125337206,inf,2235.6010555165035
33,204.173971925,1316,16354,0.8303112569560028,5.521420780396348e-05,1331.0923463724857,13189.57856350062,2568,0.06912818817056228,inf,2300.9519581417035
34,204.71593769999998,1318,16736,0.832804584655424,5.4015085267571924e-05,1330.5923576977707,14029.786948741494,2599,0.06919332422775963,inf,2366.9563976533555
35,205.257798125,1330,17064,0.8371769300637781,5.3208143514921704e-05,1330.4982445808257,14866.52551586644,2618,0.06853208884721916,inf,2432.667421685609
36,205.7995532,1333,17478,0.8381556767340916,5.1914256843238875e-05,1330.9349928650447,15694.515277808936,2641,0.06790384795095644,0.22646735491181827,2497.822578087791
37,206.34120292499998,1336,18113,0.840625124319978,5.010580701674781e-05,1331.0022424063714,16514.53160886965,2683,0.0674925220515593,0.21672209896336986,2562.886475344806
38,206.88274729999998,1335,18795,0.8415937915656597,4.820124808508933e-05,1330.5980429907556,17325.528551042727,2736,0.06752994856721016,0.18577980849665301,2626.8690117555952
39,207.424186325,1339,19215,0.8431564976534377,4.7166955563517435e-05,1329.9529547667871,18118.444336224708,2776,0.06777891514477455,0.14607502816124826,2688.7510475887952
40,207.96552,1339,19550,0.844165982526256,4.635472969777914e-05,1329.6471720763523,18890.697433690093,2792,0.0673534222508731,0.11447498402809476,2749.3996919521996
41,208.506748325,1330,19884,0.8476484869242688,4.5685484904832854e-05,1329.5011212031727,19643.25092301034,2807,0.06747746120443812,0.08685683720543863,2809.168814695636
42,209.0478713,1338,20306,0.8491768105118729,4.4768916623358964e-05,1329.8913678678762,20376.030600919225,2850,0.06769060193451876,0.04322805763723119,2867.3275498878243
43,209.588888925,1333,20863,0.8502736512177026,4.3536797297373405e-05,1330.2930077691199,21081.66789734721,2888,0.06769971979741564,0.0012745971040050265,2923.0113479353445
44,210.12980119999997,1312,21310,0.8513731200582484,4.257291329424185e-05,1330.6091191193204,21756.096264920645,2920,0.06845724457714089,-0.03298057003847726,2976.331604339792
45,210.670608125,1313,21806,0.8534308197221572,4.164499193491227e-05,1330.9962400054105,22385.695463090466,2966,0.06883917166840998,-0.0616174272031381,3026.0711680898194
46,211.2113097,1324,22272,0.8557212941711507,4.084978490410305e-05,1331.4812566535793,22967.16401277448,3018,0.06919953562755057,-0.08178899377971528,3072.0672495412673
47,211.751905925,1327,22515,0.8575135521308375,4.047166094632988e-05,1332.0565131712806,23498.85664454416,3056,0.06997550177620436,-0.19015849445240232,3114.1464585833737
48,212.29239679999998,1334,22824,0.8580327959771828,3.992707287004108e-05,1332.9028290561253,23969.020068404265,3075,0.06951303386674153,0.03500206646438458,3151.4182880698845
49,212.83278232499998,1330,23314,0.8587529108532552,3.906263240780819e-05,1333.8452739586144,24382.78185236312,3094,0.06890648356737364,0.04201106888802709,3184.429636005285
50,213.37306249999997,1329,23844,0.8598387128136875,3.8189594173381635e-05,1334.4644725814599,24740.64003714646,3127,0.06866489032374018,0.05178724081522008,3212.558313891533
51,213.91323732499998,1330,24441,0.8611437003932625,3.726120463819231e-05,1335.2910371695593,25033.85277129672,3165,0.06837431051108289,0.06847664393968292,3235.6635710887504
52,214.45330679999998,1337,25129,0.8624756676121401,3.6250658524383834e-05,1336.1734580624448,25297.530680196123,3232,0.06869499790370737,0.06888152446424038,3256.9844390585795
53,214.993270925,1350,25671,0.8630074298534857,3.548404382441041e-05,1335.9394323766987,25637.711590296007,3293,0.06894549715082943,0.0690360365511699,3283.9099186843923
54,215.5331297,1348,26172,0.8629495266956824,3.47627105501e-05,1335.3968379804496,26094.41128904342,3320,0.06855206520479719,0.06907691971179084,3318.5554146186137
55,216.07288312499998,1344,26784,0.8648478670709356,3.399559225907766e-05,1335.7143763165386,26594.631180773686,3374,0.06901105228592765,0.0690847062262043,3357.028064055747
56,216.61253119999998,1353,27323,0.8650803831098881,3.331075791720786e-05,1336.4975197625965,27099.007678542595,3423,0.06895326888862027,0.06910943614878251,3396.3070058211315
57,217.152073925,1358,27627,0.8652291434094919,3.29372699154704e-05,1337.0437382499913,27609.529910076715,3450,0.06890476866316407,0.06912631354837444,3435.9845523114254
58,217.69151129999997,1350,27910,0.8680312398394996,3.26818990903426e-05,1337.263924437674,28135.029083330905,3485,0.06977585455788146,0.06915436058026893,3477.4139844616425
59,218.230843325,1344,28387,0.868212549145114,3.2104890328185264e-05,1337.3830437835256,28674.179528414592,3514,0.06966761201216203,0.06920666396589414,3520.2924868059754
60,218.77006999999998,1338,28974,0.868144571802742,3.141353928943197e-05,1337.6175904323738,29221.71059367087,3552,0.06954957598680238,0.06925767505970405,3563.8645042922144
61,219.30919132499997,1335,29662,0.8681762475955156,3.064836543211479e-05,1338.0602505152747,29771.20559922025,3611,0.06975567972349325,0.06928552840472235,3607.212009331966
62,219.84820729999998,1333,30215,0.868951283960652,3.0086257321537707e-05,1338.7731092436718,30322.379057282706,3644,0.06952934067007364,0.06928022968812365,3650.072957484811
63,220.38711792499998,1336,30684,0.8691522224557424,2.9615381711044788e-05,1339.7358943577174,30885.007316133404,3677,0.06932960858555585,0.0692385305903255,3692.89814038816
64,220.9259232,1337,31352,0.8692686507714266,2.8961141121819975e-05,1340.7208090783229,31464.63045595536,3740,0.0695936221157334,0.06918360863249481,3736.7741738204004
65,221.464623125,1330,32006,0.8701622824311823,2.8366223837240263e-05,1342.0261840585033,32053.227207863667,3784,0.0696107132965876,0.06912909189124718,3781.7142177625037
66,222.0032177,1336,32509,0.86932404321908,2.7887083155906713e-05,1343.309520034403,32642.0470905337,3801,0.06874165997931005,0.06904482451625582,3825.8428956487523
67,222.54170692499997,1332,32877,0.8705973257298546,2.759858379235551e-05,1343.8975741239635,33224.771614305464,3831,0.06896886089709642,0.06896332641840514,3869.1140229676034
68,223.0800908,1334,33323,0.8704844215444587,2.7211992295615953e-05,1344.3835194454884,33805.67242746091,3877,0.06920009640775136,0.06888119505317368,3912.2686357561142
69,223.61836932499997,1339,33747,0.8703398065724872,2.6855708669849643e-05,1344.7728827379751,34389.15982241887,3917,0.06923401695087238,0.06877028302325555,3954.4103603704875
70,224.1565425,1333,34476,0.8697053263836744,2.624099587797346e-05,1344.695463090871,34971.889578472226,3968,0.06914502413846006,0.06866744545005657,3996.0790957891822
71,224.69461032499999,1332,35200,0.8700422735223692,2.5689213225533517e-05,1344.7171396860374,35551.768873586494,4005,0.06866726695185109,0.0685781930869432,4038.1444200320866
72,225.23257279999999,1346,35877,0.8700397124616915,2.5195902593660523e-05,1344.8453872114626,36126.251919635084,4065,0.06850765915216296,0.06850417716168897,4080.3580149039963
73,225.77042992499997,1347,36852,0.8700678242154535,2.450550131574295e-05,1344.8351265034057,36688.820901944986,4143,0.06851738167881728,0.06844880295187299,4121.8160773742675
74,226.30818169999998,1330,37542,0.8699872642519537,2.402483332188097e-05,1345.1418605177662,37239.474031121164,4171,0.06825455146746384,0.06837177196795514,4161.93299961486
75,226.84582812499997,1331,38044,0.8700242014773532,2.369798712928263e-05,1345.2183967926535,37785.74660807647,4209,0.0682028069580754,0.0682718721540306,4200.870166934618
76,227.3833692,1343,38699,0.8696880407569096,2.3281080435724104e-05,1344.601259371647,38323.40963555161,4270,0.06814372243536446,0.06817410875777213,4238.816620987936
77,227.92080492499997,1350,39074,0.87010037851645,2.3064902410042675e-05,1343.6154386282556,38849.054202812455,4277,0.06751096935419491,0.06807340690810178,4275.6428684680595
78,228.45813529999998,1374,39318,0.8693067287349536,2.291025534300426e-05,1342.769666357083,39366.10383021058,4310,0.0672645096870605,0.0679803217810674,4312.128768488445
79,228.99536032499998,1385,39574,0.8691277262341458,2.27585882383447e-05,1342.5560261840328,39863.87376837451,4366,0.06784335153850556,0.06789636503592122,4348.046071258608
80,229.53248,1361,40033,0.86926662631248,2.2477933034559372e-05,1342.4530340437805,40334.65070556447,4394,0.06817557089381858,0.06780387165454119,4381.900110987708
81,230.069494325,1339,40906,0.8686441253792921,2.1953752505352747e-05,1342.397811954945,40792.37314548383,4446,0.06821030903413099,0.06772738152904509,4415.395184488805
82,230.60640329999998,1342,41596,0.868302707705708,2.1570594418087843e-05,1343.0624929216713,41228.78076513545,4488,0.06786109003930435,0.06765747653633754,4448.207162110042
83,231.143206925,1352,42034,0.8687016218294412,2.135346398479527e-05,1343.7858388638215,41621.985707489745,4499,0.06719935116015072,0.06760238117965525,4478.4117420552275
84,231.67990519999998,1352,42306,0.8683284847277679,2.1202531736283827e-05,1344.101089492375,41971.44789236369,4515,0.06706360788186574,0.06757840687839843,4505.745973861156
85,232.216498125,1348,42572,0.8683608504247778,2.1064449117620267e-05,1344.3980384606414,42292.98197014574,4528,0.06698494819403245,0.06755111787211503,4530.652449659022
86,232.75298569999998,1352,42934,0.868249886800152,2.0880426309464482e-05,1344.5436589729975,42592.24224784172,4554,0.06685912504290527,0.06752094996840766,4553.643751840271
87,233.289367925,1346,43341,0.867778574191436,2.0663854606296844e-05,1344.7312283403671,42863.90310086217,4588,0.06699221663361436,0.06749863492458179,4574.874674397973
88,233.8256448,1340,43608,0.8676471171202086,2.0527281090191364e-05,1344.8383655348673,43095.94686176274,4624,0.06741159110018843,0.0674769482214475,4592.941267072779
89,234.36181632499998,1337,43703,0.8677489292852631,2.04822010405812e-05,1345.3005504088167,43279.41892228507,4633,0.06750933462975564,0.06746596217872344,4607.980203402027
90,234.89788249999998,1328,43737,0.8672589311593729,2.0449879298247373e-05,1345.7090987338074,43436.89798183341,4623,0.0673823522877251,0.06748397423140719,4622.251036263474
91,235.433843325,1326,43886,0.8668004592010585,2.0366552142882015e-05,1345.433373349314,43577.08124759255,4645,0.0675965865622254,0.06751351261036517,4634.986273754696
92,235.9696988,1338,44169,0.8665578153052318,2.023202389169601e-05,1345.1395501596608,43682.85517225674,4660,0.06721078336821415,0.06752606719837041,4644.530181883984
93,236.505448925,1349,44326,0.8666098942893835,2.016450413684956e-05,1344.5909533624513,43745.55401028251,4672,0.0670066472467511,0.06756706044796826,4651.560329792205
94,237.04109369999998,1348,44403,0.8664654382940954,2.0124618239324012e-05,1343.711159935647,43775.8255000105,4708,0.06761871728412869,0.0676426605550717,4657.3714240412255
95,237.576633125,1340,44409,0.8658853313998153,2.010460729062238e-05,1342.9489456159567,43771.2553851721,4717,0.06789325882043178,0.06772799683728833,4661.042900178851
96,238.11206719999998,1331,44455,0.8659634438688039,2.0080777383099988e-05,1342.2324627964133,43732.98987519453,4704,0.06773246211319627,0.06781331097985172,4662.163831570275
97,238.64739592499998,1332,44485,0.8653764850454776,2.0053680741674452e-05,1342.0791863915122,43671.98799519724,4700,0.06754079673795955,0.06788472973753172,4661.255589027975
98,239.1826193,1335,44407,0.865240351462597,2.0088232528384963e-05,1342.4992412058905,43601.004280956826,4709,0.06777769655077086,0.06795471745420702,4660.148021472651
99,239.71773732499997,1327,44259,0.8654717432609225,2.015912939674188e-05,1342.5754377222331,43540.42164035342,4713,0.06825881213736801,0.06803193359905742,4660.060635574895
100,240.25275,1326,43901,0.8654328986505,2.0327255399894305e-05,1342.0655733991453,43480.56372737691,4702,0.06862481423004317,0.06810909484471042,4659.497723617659
101,240.787657325,1345,43604,0.8649750843904328,2.0468422925067625e-05,1341.621735486622,43417.358649119196,4689,0.06844640626142613,0.0681880227583187,4658.778318874631
102,241.3224593,1358,43399,0.8650023747478218,2.057520931347546e-05,1341.7395637500026,43367.679924799275,4678,0.06830969492073853,0.06826663751907179,4659.583206867564
103,241.85715592499997,1362,43100,0.864426750181391,2.0710785140193372e-05,1342.0303970644604,43320.62071621018,4666,0.0684284341031989,0.06832990421298901,4660.101383949716
104,242.3917472,1357,42956,0.8640504083213235,2.077094180920992e-05,1342.790301026045,43267.83200072399,4655,0.06850256608677432,0.06837932338087281,4660.086457224309
105,242.92623312499998,1355,42991,0.8638615542876957,2.0747947792479963e-05,1343.8008561915071,43217.0181204549,4658,0.06853047155856132,0.06844212804219782,4661.137058596934
106,243.46061369999998,1352,42611,0.8647030136247108,2.0957924661884942e-05,1344.3220684499956,43184.148112074196,4625,0.06859528741834942,0.06852243776394373,4663.993544587556
107,243.994888925,1338,42368,0.863747888775786,2.1051618054491496e-05,1344.0417676504308,43175.22211148528,4592,0.06850196514931532,0.06860932193157455,4668.40922784199
108,244.52905879999997,1343,42597,0.8628771528607923,2.0916205770611146e-05,1344.1157217603768,43182.81136605503,4598,0.06808224978333928,0.0686700192524933,4673.223583773042
109,245.063123325,1352,42809,0.8633129275796555,2.082429813010241e-05,1344.8508686493208,43208.168497586885,4621,0.06807463058730477,0.06869850246468336,4678.421663004736
110,245.59708249999997,1349,42644,0.8623491049005171,2.088265177141342e-05,1345.4125574757945,43259.95349837965,4623,0.06836980189960754,0.06871287565155718,4684.82183061895
111,246.130936325,1349,42347,0.862505803534046,2.1037753147325384e-05,1345.9566241590717,43349.56109991083,4614,0.06868826402601738,0.06870392444477041,4692.842329384494
112,246.66468479999997,1344,42322,0.8631762817630669,2.1064382882597172e-05,1346.6058121361493,43480.05662642331,4622,0.06904904708915353,0.06867535049133032,4703.061473645972
113,247.19832792499997,1343,42620,0.8629529675416884,2.0906387759325736e-05,1347.2886135586048,43653.72103558321,4657,0.06928376903440549,0.06862932823158416,4715.712994631725
114,247.7318657,1331,43231,0.8621360146885437,2.057603853671942e-05,1347.7006274207538,43865.97374798892,4693,0.06917664156045068,0.0685876804910545,4731.312283403837
115,248.265298125,1330,43364,0.8624878814902607,2.0518815280255523e-05,1348.1638768714777,44112.01569684393,4687,0.06888166289581779,0.06853986899499358,4749.255385172846
116,248.79862519999998,1343,43225,0.862427427307537,2.059183962818244e-05,1348.6211918729496,44383.22763822425,4691,0.06894147907515481,0.06847024814303924,4767.96505017092
117,249.33184692499998,1348,43561,0.8621956715984717,2.042488502590367e-05,1349.0959931142008,44669.92733697167,4727,0.0690156865025285,0.06838619952736856,4787.179505764478
118,249.8649633,1352,44146,0.8614594306460737,2.0130378806516654e-05,1349.8979365330779,44991.28249790396,4757,0.0685439398361892,0.068266702078393,4807.406917483882
119,250.397974325,1366,44537,0.861591555373828,1.9957646461138915e-05,1350.8462026319703,45352.571745678535,4763,0.06779612502848889,0.06812436906169696,4829.493012299166
